1855,1767
1870,1768
1878,1769
1911,1770
1932,1771
1933,1772
1963,1773
1954,1774
1979,1775
2001,1776
1964,1777
1974,1778
1962,1779
1960,1780
1947,1781
1935,1782
1927,1783
1898,1784
1880,1785
1879,1786
1906,1787
1875,1788
1854,1789
1886,1790
1906,1791
1913,1792
1951,1793
1930,1794
1942,1795
1960,1796
1920,1797
1927,1798
1931,1799
1927,1800
1906,1801
1909,1802
1898,1803
1861,1804
1880,1805
1864,1806
1868,1807
1861,1808
1863,1809
1902,1810
1930,1811
1895,1812
1916,1813
1907,1814
1951,1815
1980,1816
1932,1817
1920,1818
1919,1819
1900,1820
1898,1821
1884,1822
1870,1823
1876,1824
1857,1825
1868,1826
1876,1827
1907,1828
1869,1829
1919,1830
1924,1831
1960,1832
1953,1833
1964,1834
1972,1835
1972,1836
1964,1837
1941,1838
1954,1839
1916,1840
1894,1841
1883,1842
1912,1843
1860,1844
1855,1845
1861,1846
1890,1847
1900,1848
1904,1849
1890,1850
1942,1851
1945,1852
1967,1853
1946,1854
1948,1855
1949,1856
1962,1857
1952,1858
1921,1859
1920,1860
1905,1861
1869,1862
1860,1863
1901,1864
1865,1865
1885,1866
1865,1867
1894,1868
1901,1869
1931,1870
1919,1871
1959,1872
1946,1873
1942,1874
1957,1875
1927,1876
1950,1877
1972,1878
1972,1879
1899,1880
1908,1881
1890,1882
1881,1883
1863,1884
1883,1885
1851,1886
1843,1887
1877,1888
1899,1889
1908,1890
1924,1891
1944,1892
1951,1893
1963,1894
1951,1895
1992,1896
1964,1897
1954,1898
1950,1899
1924,1900
1928,1901
1915,1902
1887,1903
1884,1904
1898,1905
1887,1906
1876,1907
1881,1908
1877,1909
1912,1910
1950,1911
1920,1912
1961,1913
1968,1914
1982,1915
1939,1916
1973,1917
1947,1918
1945,1919
1914,1920
1913,1921
1911,1922
1892,1923
1889,1924
1866,1925
1871,1926
1894,1927
1890,1928
1896,1929
1881,1930
1924,1931
1931,1932
1949,1933
1958,1934
1950,1935
1974,1936
1965,1937
1955,1938
1935,1939
1924,1940
1899,1941
1880,1942
1888,1943
1919,1944
1886,1945
1900,1946
1901,1947
1899,1948
1923,1949
1907,1950
1928,1951
1911,1952
1928,1953
1962,1954
1953,1955
1966,1956
1967,1957
1954,1958
1952,1959
1932,1960
1909,1961
1859,1962
1881,1963
1882,1964
1835,1965
1870,1966
1877,1967
1870,1968
1895,1969
1919,1970
1924,1971
1922,1972
1953,1973
1977,1974
1963,1975
1945,1976
1935,1977
1929,1978
1907,1979
1887,1980
1901,1981
1902,1982
1902,1983
1890,1984
1855,1985
1876,1986
1895,1987
1912,1988
1926,1989
1929,1990
1958,1991
1958,1992
1959,1993
1982,1994
1970,1995
1980,1996
1959,1997
1952,1998
1949,1999
1920,2000
1901,2001
1867,2002
1856,2003
1872,2004
1854,2005
1873,2006
1891,2007
1916,2008
1879,2009
1927,2010
1957,2011
1952,2012
1935,2013
1965,2014
1957,2015
1958,2016
1968,2017
1926,2018
1915,2019
1919,2020
1875,2021
1899,2022
1899,2023
1855,2024
1866,2025
1903,2026
1894,2027
1895,2028
1899,2029
1944,2030
1931,2031
1944,2032
1939,2033
1964,2034
1939,2035
1947,2036
1950,2037
1915,2038
1914,2039
1885,2040
1909,2041
1897,2042
1907,2043
1866,2044
1858,2045
1878,2046
1865,2047
1867,2048
1914,2049
1924,2050
1934,2051
1938,2052
1970,2053
1939,2054
1986,2055
1960,2056
1970,2057
1918,2058
1944,2059
1928,2060
1897,2061
1868,2062
1885,2063
1875,2064
1888,2065
1880,2066
1876,2067
1914,2068
1921,2069
1924,2070
1940,2071
1952,2072
1977,2073
1969,2074
2009,2075
2030,2076
2006,2077
2001,2078
2003,2079
1952,2080
1936,2081
1909,2082
1898,2083
1886,2084
1872,2085
1888,2086
1886,2087
1913,2088
1892,2089
1897,2090
1916,2091
1925,2092
1942,2093
1943,2094
1960,2095
1937,2096
1957,2097
1935,2098
1909,2099
1895,2100
1895,2101
1887,2102
1866,2103
1871,2104
1885,2105
1861,2106
1848,2107
1883,2108
1905,2109
1885,2110
1936,2111
1927,2112
1946,2113
1976,2114
1990,2115
1967,2116
1963,2117
1942,2118
1942,2119
1923,2120
1896,2121
1911,2122
1875,2123
1880,2124
1891,2125
1884,2126
1888,2127
1899,2128
1908,2129
1928,2130
1928,2131
1954,2132
1958,2133
1979,2134
1966,2135
1958,2136
1943,2137
1950,2138
1931,2139
1912,2140
1931,2141
1900,2142
1887,2143
1921,2144
1869,2145
1879,2146
1881,2147
1890,2148
1895,2149
1921,2150
1924,2151
1972,2152
1954,2153
1960,2154
1965,2155
1966,2156
1959,2157
1932,2158
1942,2159
1912,2160
1915,2161
1920,2162
1892,2163
1897,2164
1896,2165
1882,2166
1896,2167
1886,2168
1933,2169
1914,2170
1922,2171
1973,2172
1979,2173
1975,2174
1955,2175
1952,2176
1959,2177
1943,2178
1914,2179
1914,2180
1897,2181
1904,2182
1886,2183
1870,2184
1874,2185
1857,2186
1889,2187
1911,2188
1898,2189
1929,2190
1922,2191
1951,2192
1962,2193
1985,2194
1979,2195
1975,2196
1990,2197
1989,2198
1962,2199
1950,2200
1927,2201
1938,2202
1902,2203
1904,2204
1882,2205
1880,2206
1849,2207
1883,2208
1904,2209
1902,2210
1922,2211
1919,2212
1971,2213
1981,2214
1981,2215
1978,2216
1949,2217
1963,2218
1920,2219
1942,2220
1922,2221
1930,2222
1887,2223
1896,2224
1895,2225
1906,2226
1922,2227
1907,2228
1917,2229
1944,2230
1952,2231
1958,2232
1992,2233
1997,2234
2011,2235
1979,2236
1979,2237
1954,2238
1922,2239
1926,2240
1894,2241
1907,2242
1891,2243
1887,2244
1899,2245
1893,2246
1895,2247
1914,2248
1887,2249
1960,2250
1936,2251
1967,2252
1967,2253
1968,2254
1979,2255
1964,2256
1927,2257
1979,2258
1914,2259
1900,2260
1879,2261
1895,2262
1900,2263
1886,2264
1913,2265
1911,2266
1886,2267
1910,2268
1937,2269
1953,2270
1944,2271
1974,2272
1988,2273
1998,2274
2004,2275
1990,2276
1949,2277
1949,2278
1904,2279
1922,2280
1915,2281
1882,2282
1895,2283
1886,2284
1882,2285
1878,2286
1883,2287
1930,2288
1919,2289
1965,2290
1920,2291
1972,2292
1988,2293
1985,2294
1971,2295
2010,2296
1954,2297
1961,2298
1960,2299
1929,2300
1902,2301
1884,2302
1863,2303
1878,2304
1898,2305
1876,2306
1900,2307
1923,2308
1920,2309
1949,2310
1971,2311
1953,2312
1982,2313
1987,2314
1978,2315
1968,2316
1980,2317
1949,2318
1917,2319
1927,2320
1900,2321
1896,2322
1879,2323
1856,2324
1858,2325
1875,2326
1876,2327
1876,2328
1911,2329
1941,2330
1964,2331
1982,2332
1949,2333
1963,2334
1977,2335
1987,2336
1981,2337
1927,2338
1955,2339
1937,2340
1919,2341
1919,2342
1920,2343
1907,2344
1911,2345
1906,2346
1900,2347
1919,2348
1908,2349
1932,2350
1929,2351
1951,2352
1945,2353
1951,2354
1938,2355
1959,2356
1957,2357
1933,2358
1935,2359
1928,2360
1908,2361
1888,2362
1906,2363
1858,2364
1871,2365
1871,2366
1885,2367
1916,2368
1946,2369
1964,2370
1939,2371
1983,2372
1967,2373
2003,2374
1974,2375
1995,2376
1985,2377
1986,2378
1915,2379
1927,2380
1924,2381
1899,2382
1902,2383
1883,2384
1851,2385
1866,2386
1865,2387
1887,2388
1894,2389
1913,2390
1974,2391
1952,2392
1962,2393
1959,2394
1968,2395
1976,2396
1965,2397
1951,2398
1945,2399
1940,2400
1893,2401
1931,2402
1887,2403
1879,2404
1880,2405
1912,2406
1910,2407
1935,2408
1939,2409
1962,2410
1919,2411
1953,2412
1986,2413
1974,2414
1991,2415
1927,2416
1966,2417
1943,2418
1949,2419
1892,2420
1914,2421
1911,2422
1892,2423
1886,2424
1897,2425
1912,2426
1890,2427
1913,2428
1922,2429
1937,2430
1960,2431
1969,2432
1992,2433
2010,2434
1963,2435
1978,2436
1974,2437
1942,2438
1942,2439
1888,2440
1919,2441
1910,2442
1905,2443
1903,2444
1883,2445
1882,2446
1889,2447
1901,2448
1924,2449
1935,2450
1964,2451
1970,2452
1956,2453
1959,2454
1980,2455
1936,2456
1952,2457
1948,2458
1930,2459
1900,2460
1899,2461
1869,2462
1875,2463
1893,2464
1895,2465
1882,2466
1906,2467
1925,2468
1939,2469
1919,2470
1918,2471
1962,2472
1964,2473
1989,2474
1963,2475
1968,2476
1972,2477
1930,2478
1904,2479
1902,2480
1915,2481
1893,2482
1872,2483
1881,2484
1856,2485
1888,2486
1901,2487
1903,2488
1930,2489
1931,2490
1943,2491
1961,2492
1975,2493
1999,2494
1986,2495
1979,2496
1960,2497
1960,2498
1914,2499
1920,2500
1907,2501
1885,2502
1880,2503
1888,2504
1898,2505
1909,2506
1910,2507
1913,2508
1923,2509
1963,2510
1971,2511
1977,2512
1976,2513
1992,2514
1998,2515
1986,2516
1983,2517
1962,2518
1934,2519
1922,2520
1897,2521
1887,2522
1872,2523
1890,2524
1878,2525
1854,2526
1912,2527
1896,2528
1940,2529
1927,2530
1963,2531
1978,2532
1980,2533
1997,2534
2028,2535
1984,2536
2003,2537
1973,2538
1984,2539
1938,2540
1920,2541
1881,2542
1900,2543
1869,2544
1865,2545
1831,2546
1879,2547
1899,2548
1916,2549
1897,2550
1908,2551
1927,2552
1968,2553
1960,2554
1973,2555
1960,2556
1968,2557
1963,2558
1906,2559
1905,2560
1891,2561
1896,2562
1882,2563
1889,2564
1870,2565
1860,2566
1898,2567
1902,2568
1919,2569
1940,2570
1952,2571
1976,2572
1968,2573
1974,2574
1975,2575
1963,2576
1954,2577
1940,2578
1916,2579
1934,2580
1887,2581
1887,2582
1878,2583
1896,2584
1899,2585
1894,2586
1874,2587
1902,2588
1942,2589
1925,2590
1983,2591
1928,2592
1971,2593
1991,2594
1992,2595
1968,2596
1949,2597
1927,2598
1924,2599
1896,2600
1899,2601
1883,2602
1892,2603
1852,2604
1879,2605
1884,2606
1898,2607
1911,2608
1903,2609
1950,2610
1946,2611
1963,2612
1984,2613
1986,2614
1980,2615
1952,2616
1959,2617
1939,2618
1949,2619
1911,2620
1906,2621
1899,2622
1911,2623
1907,2624
1894,2625
1919,2626
1920,2627
1949,2628
1919,2629
1945,2630
1942,2631
1938,2632
1985,2633
1992,2634
1979,2635
1930,2636
1908,2637
1932,2638
1919,2639
1890,2640
1916,2641
1866,2642
1874,2643
1883,2644
1876,2645
1907,2646
1906,2647
1896,2648
1925,2649
1938,2650
1931,2651
1970,2652
1990,2653
1962,2654
1970,2655
1969,2656
1973,2657
1943,2658
1932,2659
1930,2660
1909,2661
1891,2662
1885,2663
1873,2664
1889,2665
1862,2666
1889,2667
1912,2668
1911,2669
1922,2670
1931,2671
1940,2672
1945,2673
1958,2674
1956,2675
1936,2676
1925,2677
1943,2678
1941,2679
1908,2680
1903,2681
1902,2682
1888,2683
1867,2684
1873,2685
1909,2686
1900,2687
1924,2688
1894,2689
1917,2690
1939,2691
1930,2692
1975,2693
1985,2694
1978,2695
1931,2696
1994,2697
1931,2698
1936,2699
1899,2700
1914,2701
1886,2702
1893,2703
1875,2704
1892,2705
1892,2706
1927,2707
1920,2708
1905,2709
1950,2710
1949,2711
1947,2712
1965,2713
1951,2714
1966,2715
1945,2716
1948,2717
1953,2718
1934,2719
1932,2720
1883,2721
1920,2722
1905,2723
1895,2724
1893,2725
1887,2726
1894,2727
1908,2728
1938,2729
1950,2730
1986,2731
1970,2732
2000,2733
1966,2734
1964,2735
1941,2736
1950,2737
1936,2738
1928,2739
1924,2740
1928,2741
1891,2742
1886,2743
1874,2744
1896,2745
1902,2746
1929,2747
1912,2748
1920,2749
1928,2750
1950,2751
1969,2752
1975,2753
2020,2754
1987,2755
1973,2756
1963,2757
1945,2758
1911,2759
1934,2760
1859,2761
1888,2762
1871,2763
1877,2764
1871,2765
1887,2766
1919,2767
1936,2768
1944,2769
1960,2770
1972,2771
1969,2772
1975,2773
1991,2774
1988,2775
1979,2776
1951,2777
1949,2778
1935,2779
1902,2780
1903,2781
1899,2782
1900,2783
1908,2784
1895,2785
1890,2786
1884,2787
1915,2788
1924,2789
1925,2790
1994,2791
1975,2792
2008,2793
2024,2794
1954,2795
1950,2796
1967,2797
1954,2798
1971,2799
1934,2800
1879,2801
1914,2802
1879,2803
1906,2804
1914,2805
1935,2806
1957,2807
1966,2808
1964,2809
1944,2810
1958,2811
1972,2812
1975,2813
1972,2814
1944,2815
1945,2816
1907,2817
1929,2818
1923,2819
1889,2820
1883,2821
1876,2822
1889,2823
1879,2824
1883,2825
1897,2826
1908,2827
1924,2828
1950,2829
1972,2830
1982,2831
1978,2832
1992,2833
1967,2834
1988,2835
2011,2836
1989,2837
1958,2838
1932,2839
1920,2840
1916,2841
1902,2842
1888,2843
1871,2844
1885,2845
1897,2846
1914,2847
1933,2848
1929,2849
1938,2850
1923,2851
1958,2852
1949,2853
1980,2854
1971,2855
1981,2856
1963,2857
1946,2858
1928,2859
1955,2860
1906,2861
1895,2862
1899,2863
1861,2864
1910,2865
1891,2866
1918,2867
1935,2868
1957,2869
1980,2870
1987,2871
1994,2872
1959,2873
1974,2874
1950,2875
1962,2876
1965,2877
1945,2878
1932,2879
1892,2880
1914,2881
1877,2882
1875,2883
1878,2884
1872,2885
1867,2886
1919,2887
1948,2888
1940,2889
1955,2890
1944,2891
1999,2892
2002,2893
2000,2894
1976,2895
1975,2896
1979,2897
1952,2898
1912,2899
1872,2900
1895,2901
1888,2902
1859,2903
1866,2904
1888,2905
1904,2906
1906,2907
1930,2908
1949,2909
1950,2910
1966,2911
1986,2912
1984,2913
1996,2914
1982,2915
1960,2916
1930,2917
1955,2918
1928,2919
1909,2920
1916,2921
1902,2922
1919,2923
1899,2924
1897,2925
1868,2926
1920,2927
1925,2928
1949,2929
1950,2930
1957,2931
1986,2932
1999,2933
2011,2934
1979,2935
1942,2936
1964,2937
1925,2938
1933,2939
1922,2940
1904,2941
1882,2942
1885,2943
1918,2944
1893,2945
1915,2946
1931,2947
1910,2948
1921,2949
1917,2950
1951,2951
1959,2952
1978,2953
1994,2954
1990,2955
1979,2956
1962,2957
1963,2958
1932,2959
1908,2960
1904,2961
1894,2962
1880,2963
1882,2964
1854,2965
1917,2966
1929,2967
1955,2968
1951,2969
1975,2970
2001,2971
2013,2972
1972,2973
1967,2974
1985,2975
2003,2976
1955,2977
1960,2978
1925,2979
1910,2980
1906,2981
1881,2982
1892,2983
1907,2984
1884,2985
1905,2986
1903,2987
1898,2988
1935,2989
1958,2990
1978,2991
1967,2992
1973,2993
1989,2994
1976,2995
1983,2996
1961,2997
1951,2998
1925,2999
1940,3000
1930,3001
1909,3002
1910,3003
1904,3004
1899,3005
1904,3006
1893,3007
1928,3008
1934,3009
1917,3010
1936,3011
1978,3012
1971,3013
1954,3014
1942,3015
1954,3016
1969,3017
1968,3018
1944,3019
1908,3020
1936,3021
1914,3022
1880,3023
1897,3024
1879,3025
1905,3026
1924,3027
1916,3028
1954,3029
1973,3030
1976,3031
1985,3032
2020,3033
2011,3034
1971,3035
1936,3036
1949,3037
1940,3038
1885,3039
1904,3040
1880,3041
1900,3042
1889,3043
1865,3044
1852,3045
1896,3046
1890,3047
1920,3048
1943,3049
1968,3050
1963,3051
1947,3052
1988,3053
1986,3054
1971,3055
1990,3056
1985,3057
1922,3058
1924,3059
1929,3060
1922,3061
1904,3062
1888,3063
1879,3064
1921,3065
1912,3066
1919,3067
1955,3068
1963,3069
1975,3070
1958,3071
2000,3072
2015,3073
1992,3074
1969,3075
1939,3076
1953,3077
1894,3078
1910,3079
1887,3080
1855,3081
1875,3082
1891,3083
1874,3084
1898,3085
1891,3086
1915,3087
1915,3088
1917,3089
1934,3090
1976,3091
1978,3092
2000,3093
1988,3094
1992,3095
1960,3096
1942,3097
1962,3098
1951,3099
1915,3100
1894,3101
1890,3102
1882,3103
1860,3104
1892,3105
1910,3106
1914,3107
1918,3108
1903,3109
1955,3110
1957,3111
1997,3112
1985,3113
2009,3114
1991,3115
1957,3116
1971,3117
1939,3118
1944,3119
1918,3120
1916,3121
1899,3122
1892,3123
1895,3124
1900,3125
1912,3126
1922,3127
1944,3128
1968,3129
1971,3130
1946,3131
1995,3132
1999,3133
2020,3134
2006,3135
1996,3136
1941,3137
1944,3138
1932,3139
1899,3140
1902,3141
1891,3142
1876,3143
1886,3144
1850,3145
1886,3146
1903,3147
1918,3148
1918,3149
1953,3150
1960,3151
1963,3152
1965,3153
1985,3154
1987,3155
1944,3156
1954,3157
1960,3158
1950,3159
1914,3160
1900,3161
1898,3162
1909,3163
1875,3164
1897,3165
1897,3166
1909,3167
1912,3168
1952,3169
1968,3170
1990,3171
1953,3172
1974,3173
1990,3174
1978,3175
1981,3176
1958,3177
1952,3178
1927,3179
1910,3180
1916,3181
1894,3182
1877,3183
1912,3184
1867,3185
1906,3186
1877,3187
1927,3188
1932,3189
1943,3190
1966,3191
1987,3192
1987,3193
1999,3194
2002,3195
1991,3196
1967,3197
1956,3198
1927,3199
1922,3200
1892,3201
1879,3202
1898,3203
1861,3204
1854,3205
1905,3206
1905,3207
1913,3208
1913,3209
1924,3210
1948,3211
1969,3212
1939,3213
1994,3214
1987,3215
1963,3216
1985,3217
1948,3218
1938,3219
1936,3220
1914,3221
1918,3222
1917,3223
1872,3224
1924,3225
1887,3226
1924,3227
1919,3228
1922,3229
1952,3230
1943,3231
1984,3232
1953,3233
1998,3234
1963,3235
1967,3236
1946,3237
1921,3238
1891,3239
1909,3240
1899,3241
1900,3242
1906,3243
1900,3244
1945,3245
1942,3246
1955,3247
1961,3248
1948,3249
1945,3250
1985,3251
2000,3252
2010,3253
1984,3254
1995,3255
1974,3256
1964,3257
1934,3258
1924,3259
1897,3260
1901,3261
1857,3262
1903,3263
1882,3264
1897,3265
1867,3266
1905,3267
1900,3268
1911,3269
1941,3270
1936,3271
1961,3272
1969,3273
2004,3274
1977,3275
1949,3276
1965,3277
1937,3278
1936,3279
1905,3280
1901,3281
1897,3282
1865,3283
1893,3284
1871,3285
1930,3286
1928,3287
1911,3288
1920,3289
1939,3290
1981,3291
1982,3292
2005,3293
1982,3294
1988,3295
1956,3296
1950,3297
1946,3298
1911,3299
1898,3300
1932,3301
1919,3302
1895,3303
1904,3304
1932,3305
1925,3306
1926,3307
1912,3308
1942,3309
1964,3310
1956,3311
1972,3312
2001,3313
1999,3314
1994,3315
1965,3316
1968,3317
1941,3318
1906,3319
1899,3320
1904,3321
1899,3322
1883,3323
1886,3324
1931,3325
1906,3326
1927,3327
1951,3328
1948,3329
1976,3330
1993,3331
1969,3332
2031,3333
2009,3334
1980,3335
1971,3336
1966,3337
1928,3338
1913,3339
1890,3340
1903,3341
1859,3342
1888,3343
1834,3344
1866,3345
1894,3346
1881,3347
1895,3348
1910,3349
1953,3350
1990,3351
2008,3352
2010,3353
1986,3354
1997,3355
2010,3356
2007,3357
1938,3358
1937,3359
1897,3360
1916,3361
1915,3362
1857,3363
1893,3364
1895,3365
1877,3366
1912,3367
1920,3368
1934,3369
1959,3370
1959,3371
1976,3372
1966,3373
1991,3374
1974,3375
1953,3376
1959,3377
1949,3378
1913,3379
1928,3380
1896,3381
1866,3382
1888,3383
1896,3384
1891,3385
1927,3386
1927,3387
1951,3388
1942,3389
1976,3390
1981,3391
2003,3392
1971,3393
1990,3394
1987,3395
1973,3396
1920,3397
1928,3398
1900,3399
1927,3400
1900,3401
1896,3402
1883,3403
1863,3404
1897,3405
1898,3406
1876,3407
1943,3408
1948,3409
1950,3410
1994,3411
2009,3412
1964,3413
2001,3414
1999,3415
2017,3416
1951,3417
1972,3418
1915,3419
1898,3420
1894,3421
1890,3422
1896,3423
1888,3424
1869,3425
1904,3426
1918,3427
1942,3428
1950,3429
1969,3430
1980,3431
1987,3432
1999,3433
1967,3434
1964,3435
1966,3436
1946,3437
1956,3438
1947,3439
1933,3440
1923,3441
1916,3442
1914,3443
1909,3444
1916,3445
1915,3446
1933,3447
1923,3448
1948,3449
1958,3450
1999,3451
1985,3452
1984,3453
1988,3454
1955,3455
1955,3456
1934,3457
1883,3458
1906,3459
1880,3460
1865,3461
1872,3462
1883,3463
1880,3464
1899,3465
1877,3466
1910,3467
1933,3468
1931,3469
1999,3470
1971,3471
2012,3472
2007,3473
2029,3474
1988,3475
2008,3476
1964,3477
1956,3478
1934,3479
1906,3480
1897,3481
1920,3482
1839,3483
1889,3484
1863,3485
1888,3486
1924,3487
1926,3488
1943,3489
1976,3490
1971,3491
1971,3492
2033,3493
2015,3494
1997,3495
1983,3496
1991,3497
1951,3498
1923,3499
1895,3500
1917,3501
1921,3502
1912,3503
1891,3504
1906,3505
1927,3506
1912,3507
1923,3508
1940,3509
1968,3510
1976,3511
2007,3512
2004,3513
1959,3514
1945,3515
1972,3516
1952,3517
1966,3518
1952,3519
1931,3520
1903,3521
1900,3522
1892,3523
1860,3524
1889,3525
1899,3526
1915,3527
1961,3528
1941,3529
1992,3530
1974,3531
2003,3532
1985,3533
1997,3534
2006,3535
1943,3536
1947,3537
1938,3538
1932,3539
1928,3540
1913,3541
1875,3542
1898,3543
1892,3544
1878,3545
1901,3546
1908,3547
1943,3548
1920,3549
1954,3550
1998,3551
1981,3552
2013,3553
2015,3554
2024,3555
1962,3556
1972,3557
1946,3558
1946,3559
1930,3560
1903,3561
1868,3562
1896,3563
1866,3564
1878,3565
1895,3566
1912,3567
1907,3568
1921,3569
1988,3570
1957,3571
1978,3572
1974,3573
1966,3574
1987,3575
1986,3576
1962,3577
1973,3578
1909,3579
1923,3580
1908,3581
1907,3582
1889,3583
1895,3584
1908,3585
1903,3586
1930,3587
1940,3588
1937,3589
1942,3590
1951,3591
1959,3592
2000,3593
2006,3594
1970,3595
1936,3596
1940,3597
1934,3598
1916,3599
1913,3600
1878,3601
1917,3602
1895,3603
1898,3604
1906,3605
1916,3606
1955,3607
1952,3608
1973,3609
1963,3610
1988,3611
2005,3612
2015,3613
2012,3614
1984,3615
1972,3616
1971,3617
1962,3618
1938,3619
1910,3620
1888,3621
1898,3622
1873,3623
1883,3624
1878,3625
1912,3626
1911,3627
1945,3628
1951,3629
1948,3630
1987,3631
2007,3632
2024,3633
1997,3634
1989,3635
1985,3636
1927,3637
1926,3638
1941,3639
1939,3640
1914,3641
1889,3642
1923,3643
1916,3644
1874,3645
1905,3646
1909,3647
1948,3648
1901,3649
1965,3650
1969,3651
1992,3652
1983,3653
1993,3654
1993,3655
1966,3656
1955,3657
1945,3658
1920,3659
1896,3660
1902,3661
1885,3662
1901,3663
1912,3664
1908,3665
1912,3666
1892,3667
1944,3668
1947,3669
1988,3670
2001,3671
1979,3672
1954,3673
1979,3674
1957,3675
1956,3676
1953,3677
1951,3678
1925,3679
1934,3680
1921,3681
1919,3682
1908,3683
1933,3684
1923,3685
1932,3686
1932,3687
1937,3688
1962,3689
1961,3690
2006,3691
1998,3692
1994,3693
1990,3694
2015,3695
1994,3696
1958,3697
1920,3698
1916,3699
1900,3700
1884,3701
1892,3702
1866,3703
1895,3704
1889,3705
1885,3706
1906,3707
1927,3708
1944,3709
1971,3710
1995,3711
1955,3712
1999,3713
1982,3714
1995,3715
1941,3716
1937,3717
1936,3718
1903,3719
1898,3720
1905,3721
1904,3722
1876,3723
1906,3724
1902,3725
1923,3726
1935,3727
1945,3728
1979,3729
1982,3730
1956,3731
1975,3732
1968,3733
1989,3734
1985,3735
1984,3736
1957,3737
1943,3738
1909,3739
1896,3740
1913,3741
1878,3742
1926,3743
1884,3744
1921,3745
1922,3746
1903,3747
1922,3748
1927,3749
1936,3750
1978,3751
1971,3752
2000,3753
1979,3754
2014,3755
1988,3756
1987,3757
1941,3758
1928,3759
1937,3760
1919,3761
1934,3762
1902,3763
1912,3764
1882,3765
1931,3766
1932,3767
1940,3768
1953,3769
1974,3770
1978,3771
1987,3772
1971,3773
1962,3774
1979,3775
1977,3776
1990,3777
1923,3778
1930,3779
1920,3780
1882,3781
1904,3782
1899,3783
1893,3784
1895,3785
1903,3786
1927,3787
1937,3788
1944,3789
1974,3790
1972,3791
1976,3792
1997,3793
2011,3794
1974,3795
1979,3796
1935,3797
1910,3798
1926,3799
1924,3800
1899,3801
1906,3802
1920,3803
1858,3804
1920,3805
1904,3806
1928,3807
1943,3808
1915,3809
1976,3810
1964,3811
2004,3812
1977,3813
1976,3814
1999,3815
1981,3816
1951,3817
1941,3818
1969,3819
1927,3820
1929,3821
1878,3822
1898,3823
1882,3824
1906,3825
1918,3826
1916,3827
1955,3828
1930,3829
1986,3830
1967,3831
1993,3832
2006,3833
1984,3834
1966,3835
1981,3836
1972,3837
1944,3838
1927,3839
1914,3840
1885,3841
1893,3842
1903,3843
1900,3844
1900,3845
1904,3846
1920,3847
1936,3848
1932,3849
1971,3850
1986,3851
2015,3852
2013,3853
1985,3854
1993,3855
1981,3856
1954,3857
1936,3858
1936,3859
1898,3860
1929,3861
1892,3862
1883,3863
1898,3864
1896,3865
1882,3866
1922,3867
1911,3868
1946,3869
1989,3870
1949,3871
2004,3872
2009,3873
2005,3874
1965,3875
1967,3876
1930,3877
1943,3878
1920,3879
1905,3880
1911,3881
1917,3882
1901,3883
1928,3884
1888,3885
1940,3886
1935,3887
1964,3888
1947,3889
1974,3890
1983,3891
1992,3892
1963,3893
1992,3894
1979,3895
1946,3896
1944,3897
1926,3898
1936,3899
1922,3900
1903,3901
1874,3902
1879,3903
1867,3904
1857,3905
1912,3906
1953,3907
1943,3908
1978,3909
1979,3910
1994,3911
1991,3912
2025,3913
1989,3914
1993,3915
1988,3916
1973,3917
1941,3918
1926,3919
1929,3920
1896,3921
1894,3922
1885,3923
1898,3924
1895,3925
1928,3926
1956,3927
1955,3928
1939,3929
1964,3930
2012,3931
1993,3932
2026,3933
1969,3934
2006,3935
2000,3936
1959,3937
1922,3938
1970,3939
1920,3940
1894,3941
1877,3942
1859,3943
1889,3944
1901,3945
1887,3946
1930,3947
1931,3948
1934,3949
1954,3950
1977,3951
1960,3952
2011,3953
2014,3954
1983,3955
1950,3956
1953,3957
1922,3958
1928,3959
1930,3960
1917,3961
1917,3962
1919,3963
1922,3964
1916,3965
1919,3966
1924,3967
1955,3968
1983,3969
1978,3970
2028,3971
1987,3972
1962,3973
1957,3974
1960,3975
1960,3976
1944,3977
1939,3978
1913,3979
1875,3980
1908,3981
1890,3982
1906,3983
1896,3984
1884,3985
1876,3986
1920,3987
1930,3988
1968,3989
1967,3990
1954,3991
1990,3992
1987,3993
2002,3994
1986,3995
1956,3996
1940,3997
1933,3998
1938,3999
1889,4000
1890,4001
1854,4002
1885,4003
1904,4004
1905,4005
1888,4006
1926,4007
1935,4008
1953,4009
1982,4010
1983,4011
2005,4012
1965,4013
2000,4014
1995,4015
1954,4016
1977,4017
1924,4018
1928,4019
1888,4020
1900,4021
1913,4022
1922,4023
1869,4024
1893,4025
1904,4026
1922,4027
1952,4028
1958,4029
1968,4030
1985,4031
1994,4032
1989,4033
1977,4034
1954,4035
1928,4036
1931,4037
1938,4038
1923,4039
1915,4040
1915,4041
1897,4042
1903,4043
1917,4044
1920,4045
1927,4046
1945,4047
1943,4048
1966,4049
1987,4050
1983,4051
1978,4052
2015,4053
1987,4054
1969,4055
1935,4056
1952,4057
1949,4058
1888,4059
1932,4060
1899,4061
1874,4062
1867,4063
1906,4064
1891,4065
1888,4066
1938,4067
1943,4068
1990,4069
1945,4070
1982,4071
1972,4072
2007,4073
1993,4074
2029,4075
1972,4076
1955,4077
1939,4078
1933,4079
1924,4080
1915,4081
1911,4082
1887,4083
1915,4084
1919,4085
1936,4086
1933,4087
1962,4088
1964,4089
1975,4090
1994,4091
1979,4092
1987,4093
1982,4094
1959,4095
1980,4096
1958,4097
1944,4098
1936,4099
1905,4100
1887,4101
1884,4102
1876,4103
1865,4104
1898,4105
1911,4106
1906,4107
1930,4108
1943,4109
1960,4110
1988,4111
2022,4112
1981,4113
1992,4114
1979,4115
1964,4116
1959,4117
1949,4118
1933,4119
1928,4120
1903,4121
1911,4122
1903,4123
1900,4124
1924,4125
1899,4126
1921,4127
1899,4128
1935,4129
1944,4130
1992,4131
1997,4132
2019,4133
1982,4134
1978,4135
1963,4136
1973,4137
1932,4138
1916,4139
1908,4140
1920,4141
1920,4142
1910,4143
1899,4144
1925,4145
1932,4146
1923,4147
1917,4148
1977,4149
1983,4150
1995,4151
2014,4152
1999,4153
2007,4154
1993,4155
1984,4156
1953,4157
1940,4158
1927,4159
1907,4160
1883,4161
1892,4162
1906,4163
1927,4164
1909,4165
1965,4166
1970,4167
1983,4168
2007,4169
2010,4170
2016,4171
2005,4172
1986,4173
1967,4174
1970,4175
1981,4176
1958,4177
1923,4178
1917,4179
1906,4180
1906,4181
1874,4182
1897,4183
1891,4184
1914,4185
1916,4186
1925,4187
1968,4188
1950,4189
1953,4190
1973,4191
1973,4192
1988,4193
1984,4194
1965,4195
1984,4196
1972,4197
1927,4198
1908,4199
1932,4200
1910,4201
1883,4202
1884,4203
1887,4204
1897,4205
1907,4206
1920,4207
1956,4208
1943,4209
1993,4210
2005,4211
2028,4212
1992,4213
1999,4214
1967,4215
1955,4216
1958,4217
1923,4218
1902,4219
1865,4220
1904,4221
1885,4222
1863,4223
1915,4224
1886,4225
1930,4226
1928,4227
1970,4228
1950,4229
1973,4230
1954,4231
1990,4232
1992,4233
1990,4234
1982,4235
1956,4236
1960,4237
1913,4238
1898,4239
1892,4240
1905,4241
1888,4242
1930,4243
1921,4244
1931,4245
1928,4246
1946,4247
1923,4248
1939,4249
1988,4250
1970,4251
1993,4252
1979,4253
1994,4254
1953,4255
1947,4256
1960,4257
1954,4258
1934,4259
1927,4260
1904,4261
1892,4262
1896,4263
1911,4264
1930,4265
1906,4266
1918,4267
1948,4268
1960,4269
1987,4270
2014,4271
1999,4272
2008,4273
2005,4274
2003,4275
1985,4276
1958,4277
1946,4278
1948,4279
1941,4280
1891,4281
1909,4282
1904,4283
1930,4284
1909,4285
1916,4286
1931,4287
1935,4288
1923,4289
1995,4290
1977,4291
1975,4292
1995,4293
1966,4294
1976,4295
1979,4296
1931,4297
1926,4298
1931,4299
1905,4300
1921,4301
1919,4302
1867,4303
1898,4304
1893,4305
1927,4306
1939,4307
1963,4308
1947,4309
1974,4310
1985,4311
1994,4312
1978,4313
1970,4314
1963,4315
1928,4316
1935,4317
1940,4318
1920,4319
1871,4320
1888,4321
1915,4322
1913,4323
1913,4324
1892,4325
1926,4326
1948,4327
1956,4328
1958,4329
1950,4330
1969,4331
1992,4332
1962,4333
1971,4334
1978,4335
1956,4336
1946,4337
1919,4338
1918,4339
1904,4340
1909,4341
1887,4342
1906,4343
1915,4344
1924,4345
1933,4346
1921,4347
1956,4348
1945,4349
2004,4350
1990,4351
2013,4352
2014,4353
1991,4354
2006,4355
2008,4356
1934,4357
1952,4358
1938,4359
1926,4360
1914,4361
1903,4362
1891,4363
1911,4364
1919,4365
1921,4366
1912,4367
1933,4368
1942,4369
1948,4370
1962,4371
1991,4372
2004,4373
1991,4374
1941,4375
1942,4376
1940,4377
1934,4378
1902,4379
1900,4380
1899,4381
1911,4382
1920,4383
1887,4384
1911,4385
1915,4386
1949,4387
1959,4388
1936,4389
1990,4390
1970,4391
1984,4392
1991,4393
1978,4394
1977,4395
1930,4396
1923,4397
1906,4398
1890,4399
1916,4400
1867,4401
1883,4402
1891,4403
1882,4404
1903,4405
1914,4406
1921,4407
1968,4408
1958,4409
2016,4410
2000,4411
2007,4412
1991,4413
1995,4414
1965,4415
1960,4416
1952,4417
1919,4418
1907,4419
1927,4420
1909,4421
1922,4422
1888,4423
1926,4424
1913,4425
1937,4426
1956,4427
1954,4428
1952,4429
1975,4430
1966,4431
1975,4432
1998,4433
1984,4434
1968,4435
1944,4436
1927,4437
1904,4438
1920,4439
1883,4440
1897,4441
1927,4442
1903,4443
1900,4444
1904,4445
1930,4446
1940,4447
1927,4448
1977,4449
2001,4450
1996,4451
1983,4452
1977,4453
1959,4454
1997,4455
1950,4456
1952,4457
1940,4458
1925,4459
1913,4460
1919,4461
1893,4462
1920,4463
1900,4464
1926,4465
1915,4466
1915,4467
1948,4468
1964,4469
1969,4470
1972,4471
1957,4472
2012,4473
1990,4474
1958,4475
1962,4476
1953,4477
1936,4478
1891,4479
1909,4480
1927,4481
1934,4482
1924,4483
1891,4484
1927,4485
1924,4486
1969,4487
1955,4488
1945,4489
1963,4490
1982,4491
1953,4492
1963,4493
1967,4494
1964,4495
1941,4496
1973,4497
1948,4498
1943,4499
1927,4500
1911,4501
1916,4502
1913,4503
1919,4504
1954,4505
1951,4506
1970,4507
1968,4508
1980,4509
1993,4510
1983,4511
1978,4512
1967,4513
1960,4514
1952,4515
1947,4516
1942,4517
1905,4518
1932,4519
1916,4520
1874,4521
1911,4522
1887,4523
1912,4524
1896,4525
1925,4526
1948,4527
1958,4528
1979,4529
1983,4530
1997,4531
1984,4532
2012,4533
2008,4534
1991,4535
1994,4536
1959,4537
1935,4538
1924,4539
1907,4540
1913,4541
1891,4542
1913,4543
1879,4544
1897,4545
1927,4546
1924,4547
1947,4548
1940,4549
1967,4550
1958,4551
1979,4552
1978,4553
1954,4554
1972,4555
1952,4556
1947,4557
1922,4558
1922,4559
1916,4560
1904,4561
1904,4562
1914,4563
1921,4564
1923,4565
1952,4566
1930,4567
1975,4568
1983,4569
1990,4570
1971,4571
1987,4572
1999,4573
1977,4574
1956,4575
1973,4576
1952,4577
1933,4578
1931,4579
1917,4580
1883,4581
1897,4582
1896,4583
1913,4584
1919,4585
1952,4586
1960,4587
1955,4588
1988,4589
1992,4590
1973,4591
2005,4592
1976,4593
1962,4594
1988,4595
1953,4596
1955,4597
1939,4598
1937,4599
1904,4600
1891,4601
1875,4602
1880,4603
1900,4604
1918,4605
1914,4606
1937,4607
1959,4608
1954,4609
1977,4610
2025,4611
2032,4612
1980,4613
2019,4614
1956,4615
1967,4616
1926,4617
1908,4618
1908,4619
1894,4620
1901,4621
1896,4622
1890,4623
1902,4624
1875,4625
1935,4626
1936,4627
1957,4628
1980,4629
1993,4630
1983,4631
2005,4632
1989,4633
1960,4634
1939,4635
1919,4636
1940,4637
1922,4638
1941,4639
1917,4640
1904,4641
1937,4642
1926,4643
1899,4644
1913,4645
1884,4646
1939,4647
1932,4648
1955,4649
1952,4650
1970,4651
1975,4652
1989,4653
1983,4654
1954,4655
1984,4656
1964,4657
1937,4658
1932,4659
1899,4660
1905,4661
1907,4662
1910,4663
1927,4664
1932,4665
1918,4666
1940,4667
1953,4668
1966,4669
1982,4670
2004,4671
2000,4672
1956,4673
1989,4674
1980,4675
1915,4676
1935,4677
1949,4678
1909,4679
1901,4680
1896,4681
1904,4682
1876,4683
1879,4684
1918,4685
1946,4686
1935,4687
1955,4688
1957,4689
1973,4690
2009,4691
2004,4692
2002,4693
1998,4694
1950,4695
1972,4696
1948,4697
1926,4698
1894,4699
1914,4700
1890,4701
1882,4702
1879,4703
1903,4704
1911,4705
1910,4706
1936,4707
1946,4708
1964,4709
1967,4710
1964,4711
1985,4712
1969,4713
1994,4714
1976,4715
1978,4716
1917,4717
1906,4718
1885,4719
1902,4720
1902,4721
1899,4722
1898,4723
1908,4724
1946,4725
1952,4726
1977,4727
1978,4728
1981,4729
2002,4730
2036,4731
2004,4732
2007,4733
1966,4734
1957,4735
1941,4736
1905,4737
1901,4738
1916,4739
1938,4740
1913,4741
1885,4742
1869,4743
1884,4744
1931,4745
1936,4746
1930,4747
1971,4748
1976,4749
1962,4750
2002,4751
1980,4752
1978,4753
1969,4754
1987,4755
1937,4756
1926,4757
1951,4758
1943,4759
1897,4760
1922,4761
1869,4762
1882,4763
1922,4764
1912,4765
1924,4766
1952,4767
1968,4768
1955,4769
1979,4770
1996,4771
1996,4772
1975,4773
2015,4774
1955,4775
1933,4776
1935,4777
1905,4778
1900,4779
1922,4780
1905,4781
1875,4782
1904,4783
1905,4784
1891,4785
1924,4786
1928,4787
1956,4788
1968,4789
1967,4790
1981,4791
1985,4792
1988,4793
1975,4794
2004,4795
1944,4796
1934,4797
1956,4798
1960,4799
1949,4800
1919,4801
1942,4802
1933,4803
1947,4804
1955,4805
1929,4806
1949,4807
1946,4808
1954,4809
1945,4810
1971,4811
1959,4812
1964,4813
1970,4814
1951,4815
1929,4816
1924,4817
1897,4818
1886,4819
1900,4820
1915,4821
1895,4822
1869,4823
1925,4824
1940,4825
1964,4826
1990,4827
1988,4828
1972,4829
1978,4830
1995,4831
1980,4832
1963,4833
1957,4834
1960,4835
1943,4836
1929,4837
1912,4838
1877,4839
1881,4840
1891,4841
1878,4842
1943,4843
1935,4844
1927,4845
1921,4846
1929,4847
1962,4848
1971,4849
1954,4850
2009,4851
1999,4852
2005,4853
1979,4854
1948,4855
1955,4856
1928,4857
1919,4858
1886,4859
1913,4860
1885,4861
1874,4862
1901,4863
1912,4864
1893,4865
1939,4866
1961,4867
1989,4868
1959,4869
1971,4870
2007,4871
2007,4872
2011,4873
1990,4874
1986,4875
1950,4876
1933,4877
1899,4878
1926,4879
1907,4880
1939,4881
1911,4882
1928,4883
1938,4884
1959,4885
1946,4886
1984,4887
1991,4888
1959,4889
1979,4890
2008,4891
1995,4892
1999,4893
1980,4894
1961,4895
1958,4896
1919,4897
1920,4898
1904,4899
1900,4900
1912,4901
1880,4902
1869,4903
1896,4904
1920,4905
1922,4906
1958,4907
1951,4908
1970,4909
1965,4910
1976,4911
1971,4912
1982,4913
1983,4914
1985,4915
1955,4916
1930,4917
1914,4918
1920,4919
1924,4920
1897,4921
1936,4922
1923,4923
1932,4924
1940,4925
1938,4926
1973,4927
1979,4928
1990,4929
1996,4930
1993,4931
2006,4932
1976,4933
1982,4934
1974,4935
1967,4936
1899,4937
1876,4938
1901,4939
1888,4940
1891,4941
1888,4942
1892,4943
1919,4944
1915,4945
1926,4946
1943,4947
1957,4948
1970,4949
2003,4950
2000,4951
1999,4952
1992,4953
1989,4954
1983,4955
1957,4956
1956,4957
1920,4958
1942,4959
1923,4960
1916,4961
1911,4962
1885,4963
1888,4964
1915,4965
1943,4966
1946,4967
1945,4968
1940,4969
1976,4970
1990,4971
1999,4972
1980,4973
1981,4974
1971,4975
1955,4976
1935,4977
1937,4978
1931,4979
1906,4980
1914,4981
1917,4982
1924,4983
1930,4984
1925,4985
1955,4986
1954,4987
1936,4988
2001,4989
1996,4990
2022,4991
2012,4992
1987,4993
1967,4994
1966,4995
1950,4996
1952,4997
1921,4998
1925,4999
1920,5000
1918,5001
1884,5002
1930,5003
1918,5004
1922,5005
1935,5006
1928,5007
1960,5008
2007,5009
2014,5010
2014,5011
1995,5012
1980,5013
1997,5014
1977,5015
1956,5016
1901,5017
1914,5018
1881,5019
1902,5020
1883,5021
1906,5022
1905,5023
1912,5024
1904,5025
1928,5026
1963,5027
1974,5028
1974,5029
1972,5030
1988,5031
1963,5032
1956,5033
1961,5034
1941,5035
1930,5036
1945,5037
1883,5038
1920,5039
1879,5040
1896,5041
1904,5042
1894,5043
1899,5044
1956,5045
1937,5046
1936,5047
1967,5048
1996,5049
1956,5050
2003,5051
1989,5052
1996,5053
2000,5054
1980,5055
1926,5056
1917,5057
1926,5058
1903,5059
1902,5060
1911,5061
1919,5062
1922,5063
1896,5064
1913,5065
1929,5066
1945,5067
1960,5068
1966,5069
1993,5070
1970,5071
1995,5072
1995,5073
1958,5074
1960,5075
1921,5076
1940,5077
1936,5078
1942,5079
1931,5080
1927,5081
1913,5082
1924,5083
1924,5084
1970,5085
1964,5086
1967,5087
1991,5088
2006,5089
1998,5090
2000,5091
1998,5092
1991,5093
1981,5094
1974,5095
1956,5096
1937,5097
1892,5098
1908,5099
1883,5100
1869,5101
1895,5102
1873,5103
1939,5104
1905,5105
1939,5106
1962,5107
1995,5108
1992,5109
2021,5110
2028,5111
2022,5112
2020,5113
1989,5114
1960,5115
1943,5116
1932,5117
1939,5118
1903,5119
1910,5120
1870,5121
1902,5122
1900,5123
1920,5124
1914,5125
1943,5126
1936,5127
1952,5128
1959,5129
1957,5130
1983,5131
1962,5132
1962,5133
1974,5134
1962,5135
1928,5136
1939,5137
1896,5138
1927,5139
1902,5140
1917,5141
1923,5142
1894,5143
1899,5144
1933,5145
1938,5146
1927,5147
1960,5148
1971,5149
2000,5150
1998,5151
1984,5152
1979,5153
1976,5154
1971,5155
1950,5156
1963,5157
1913,5158
1923,5159
1923,5160
1887,5161
1904,5162
1879,5163
1930,5164
1939,5165
1937,5166
1927,5167
1931,5168
1974,5169
1953,5170
1979,5171
1979,5172
1969,5173
1986,5174
1941,5175
1975,5176
1959,5177
1961,5178
1952,5179
1888,5180
1943,5181
1908,5182
1925,5183
1900,5184
1941,5185
1937,5186
1951,5187
1952,5188
1990,5189
1992,5190
1984,5191
1984,5192
1984,5193
1984,5194
1973,5195
1963,5196
1968,5197
1926,5198
1956,5199
1889,5200
1928,5201
1902,5202
1908,5203
1900,5204
1936,5205
1942,5206
1966,5207
1972,5208
1967,5209
1970,5210
1990,5211
1995,5212
1955,5213
2006,5214
1964,5215
1971,5216
1944,5217
1935,5218
1917,5219
1910,5220
1906,5221
1890,5222
1902,5223
1880,5224
1903,5225
1921,5226
1913,5227
1935,5228
1951,5229
1989,5230
1977,5231
1996,5232
1967,5233
1984,5234
1952,5235
1967,5236
1960,5237
1928,5238
1935,5239
1899,5240
1909,5241
1928,5242
1935,5243
1899,5244
1968,5245
1973,5246
1977,5247
1963,5248
1970,5249
1965,5250
1973,5251
1980,5252
1954,5253
1936,5254
1950,5255
1930,5256
1922,5257
1903,5258
1893,5259
1941,5260
1885,5261
1895,5262
1914,5263
1894,5264
1972,5265
1958,5266
1961,5267
1988,5268
1994,5269
1979,5270
1981,5271
1976,5272
1951,5273
1930,5274
1976,5275
1950,5276
1952,5277
1920,5278
1927,5279
1912,5280
1868,5281
1913,5282
1899,5283
1951,5284
1944,5285
1948,5286
1962,5287
1951,5288
1977,5289
1976,5290
2011,5291
2008,5292
1979,5293
1983,5294
1952,5295
1972,5296
1946,5297
1955,5298
1938,5299
1928,5300
1939,5301
1872,5302
1928,5303
1867,5304
1913,5305
1920,5306
1930,5307
1956,5308
1971,5309
1979,5310
1972,5311
2005,5312
1984,5313
1972,5314
1976,5315
1967,5316
1954,5317
1941,5318
1925,5319
1939,5320
1888,5321
1934,5322
1910,5323
1893,5324
1928,5325
1943,5326
1940,5327
1968,5328
1943,5329
1985,5330
1966,5331
1986,5332
1983,5333
1972,5334
1992,5335
1979,5336
1998,5337
1970,5338
1955,5339
1920,5340
1927,5341
1915,5342
1933,5343
1883,5344
1924,5345
1945,5346
1951,5347
1939,5348
1942,5349
1935,5350
1974,5351
1951,5352
1958,5353
1954,5354
1968,5355
1933,5356
1924,5357
1932,5358
1909,5359
1900,5360
1873,5361
1894,5362
1920,5363
1923,5364
1939,5365
1955,5366
1957,5367
1993,5368
1991,5369
2021,5370
2007,5371
2012,5372
2008,5373
1972,5374
1956,5375
1923,5376
1978,5377
1933,5378
1912,5379
1917,5380
1917,5381
1909,5382
1905,5383
1909,5384
1928,5385
1945,5386
1937,5387
1959,5388
1983,5389
1950,5390
2011,5391
1959,5392
1985,5393
2010,5394
1971,5395
1940,5396
1956,5397
1926,5398
1920,5399
1872,5400
1910,5401
1926,5402
1927,5403
1912,5404
1923,5405
1952,5406
1974,5407
1969,5408
2000,5409
1997,5410
1999,5411
2003,5412
1975,5413
1986,5414
1940,5415
1974,5416
1943,5417
1945,5418
1902,5419
1931,5420
1908,5421
1935,5422
1906,5423
1929,5424
1899,5425
1938,5426
1951,5427
1946,5428
1949,5429
1983,5430
1978,5431
1948,5432
1971,5433
1945,5434
1973,5435
1923,5436
1935,5437
1904,5438
1919,5439
1923,5440
1910,5441
1933,5442
1914,5443
1961,5444
1956,5445
1978,5446
1971,5447
2029,5448
1974,5449
1951,5450
2009,5451
1972,5452
1959,5453
1960,5454
1947,5455
1921,5456
1910,5457
1887,5458
1883,5459
1885,5460
1935,5461
1904,5462
1919,5463
1928,5464
1953,5465
1935,5466
1937,5467
1988,5468
1997,5469
1983,5470
1993,5471
2011,5472
1969,5473
1997,5474
1965,5475
1944,5476
1950,5477
1939,5478
1950,5479
1942,5480
1935,5481
1955,5482
1962,5483
1955,5484
1965,5485
1941,5486
1975,5487
1991,5488
1992,5489
1972,5490
1965,5491
1957,5492
1959,5493
1952,5494
1959,5495
1932,5496
1887,5497
1885,5498
1904,5499
1928,5500
1910,5501
1922,5502
1901,5503
1920,5504
1947,5505
1949,5506
1943,5507
1987,5508
1999,5509
1987,5510
2001,5511
1992,5512
1948,5513
1980,5514
1983,5515
1950,5516
1955,5517
1915,5518
1920,5519
1934,5520
1932,5521
1928,5522
1912,5523
1940,5524
1915,5525
1960,5526
1973,5527
1986,5528
1987,5529
1995,5530
1993,5531
2000,5532
1998,5533
1967,5534
1973,5535
1940,5536
1924,5537
1904,5538
1931,5539
1901,5540
1902,5541
1919,5542
1944,5543
1916,5544
1893,5545
1917,5546
1963,5547
1990,5548
2005,5549
2000,5550
2021,5551
2021,5552
2013,5553
1992,5554
1935,5555
1933,5556
1950,5557
1910,5558
1939,5559
1881,5560
1902,5561
1904,5562
1888,5563
1920,5564
1952,5565
1942,5566
1956,5567
1983,5568
1976,5569
2008,5570
1999,5571
2001,5572
1967,5573
1994,5574
1948,5575
1953,5576
1923,5577
1952,5578
1924,5579
1886,5580
1915,5581
1923,5582
1916,5583
1903,5584
1905,5585
1941,5586
1944,5587
1966,5588
1952,5589
1975,5590
1969,5591
1981,5592
1977,5593
1970,5594
1979,5595
1970,5596
1930,5597
1920,5598
1938,5599
1907,5600
1924,5601
1900,5602
1906,5603
1941,5604
1916,5605
1931,5606
1989,5607
1983,5608
1990,5609
2002,5610
2004,5611
1997,5612
1998,5613
1977,5614
1972,5615
1976,5616
1955,5617
1922,5618
1930,5619
1921,5620
1919,5621
1906,5622
1934,5623
1908,5624
1951,5625
1939,5626
1957,5627
1948,5628
1982,5629
2024,5630
1995,5631
2012,5632
1993,5633
1957,5634
1962,5635
1922,5636
1940,5637
1920,5638
1921,5639
1944,5640
1902,5641
1918,5642
1928,5643
1935,5644
1934,5645
1932,5646
1970,5647
1989,5648
2008,5649
2020,5650
2020,5651
2029,5652
1992,5653
1960,5654
1956,5655
1949,5656
1934,5657
1914,5658
1905,5659
1942,5660
1923,5661
1963,5662
1930,5663
1959,5664
1964,5665
1966,5666
1968,5667
1961,5668
1970,5669
2014,5670
1982,5671
1975,5672
1966,5673
1965,5674
1958,5675
1935,5676
1920,5677
1920,5678
1919,5679
1905,5680
1904,5681
1917,5682
1902,5683
1940,5684
1936,5685
1936,5686
1946,5687
1948,5688
1967,5689
2005,5690
2028,5691
2001,5692
2015,5693
1985,5694
1961,5695
1966,5696
1916,5697
1887,5698
1911,5699
1921,5700
1917,5701
1901,5702
1926,5703
1938,5704
1974,5705
1979,5706
1990,5707
2018,5708
2012,5709
2000,5710
2031,5711
2001,5712
1975,5713
1987,5714
1954,5715
1923,5716
1887,5717
1905,5718
1907,5719
1910,5720
1906,5721
1899,5722
1926,5723
1937,5724
1941,5725
1949,5726
1961,5727
1982,5728
1955,5729
1982,5730
1990,5731
1995,5732
1973,5733
1991,5734
1977,5735
1927,5736
1950,5737
1934,5738
1935,5739
1914,5740
1903,5741
1912,5742
1903,5743
1916,5744
1932,5745
1934,5746
1971,5747
1973,5748
1984,5749
1963,5750
1990,5751
1992,5752
1967,5753
1986,5754
1954,5755
1970,5756
1957,5757
1953,5758
1914,5759
1928,5760
1931,5761
1923,5762
1922,5763
1938,5764
1951,5765
1939,5766
1979,5767
1959,5768
1980,5769
2007,5770
2016,5771
1978,5772
1980,5773
1955,5774
1946,5775
1959,5776
1924,5777
1909,5778
1919,5779
1914,5780
1912,5781
1916,5782
1931,5783
1944,5784
1928,5785
1955,5786
1955,5787
1983,5788
1965,5789
2000,5790
2001,5791
1976,5792
1982,5793
1980,5794
1959,5795
1944,5796
1944,5797
1906,5798
1924,5799
1897,5800
1930,5801
1930,5802
1927,5803
1907,5804
1953,5805
1968,5806
1971,5807
1999,5808
2009,5809
2030,5810
2035,5811
1989,5812
2021,5813
1989,5814
1964,5815
1919,5816
1943,5817
1932,5818
1936,5819
1933,5820
1931,5821
1942,5822
1934,5823
1956,5824
1919,5825
1971,5826
1959,5827
1963,5828
1991,5829
1988,5830
1985,5831
1984,5832
1957,5833
1961,5834
1938,5835
1927,5836
1921,5837
1903,5838
1902,5839
1912,5840
1917,5841
1887,5842
1916,5843
1920,5844
1926,5845
1961,5846
1963,5847
1971,5848
1992,5849
2015,5850
1996,5851
1990,5852
1998,5853
1984,5854
1957,5855
1935,5856
1935,5857
1917,5858
1924,5859
1913,5860
1919,5861
1928,5862
1922,5863
1944,5864
1970,5865
1945,5866
1992,5867
1977,5868
2012,5869
2011,5870
2025,5871
2023,5872
1988,5873
1955,5874
1954,5875
1944,5876
1911,5877
1874,5878
1910,5879
1881,5880
1892,5881
1880,5882
1904,5883
1905,5884
1948,5885
1945,5886
1978,5887
1967,5888
2006,5889
2006,5890
2022,5891
2003,5892
2021,5893
1993,5894
1960,5895
1951,5896
1953,5897
1933,5898
1895,5899
1907,5900
1894,5901
1896,5902
1917,5903
1903,5904
1921,5905
1942,5906
1984,5907
1976,5908
1999,5909
1982,5910
1990,5911
2009,5912
1977,5913
1963,5914
1968,5915
1975,5916
1979,5917
1948,5918
1932,5919
1946,5920
1894,5921
1927,5922
1948,5923
1945,5924
1944,5925
1944,5926
1963,5927
1972,5928
1972,5929
2007,5930
2009,5931
1970,5932
1985,5933
1974,5934
1957,5935
1955,5936
1935,5937
1934,5938
1925,5939
1900,5940
1904,5941
1899,5942
1910,5943
1936,5944
1943,5945
1954,5946
1971,5947
2012,5948
2034,5949
2036,5950
2028,5951
2018,5952
1968,5953
1992,5954
1948,5955
1924,5956
1932,5957
1934,5958
1948,5959
1933,5960
1909,5961
1903,5962
1911,5963
1932,5964
1962,5965
1952,5966
1974,5967
1990,5968
1968,5969
2011,5970
1988,5971
1974,5972
1930,5973
1958,5974
1952,5975
1914,5976
1929,5977
1939,5978
1934,5979
1936,5980
1900,5981
1906,5982
1903,5983
1925,5984
1968,5985
1955,5986
1964,5987
1986,5988
1988,5989
2014,5990
1997,5991
1988,5992
2001,5993
1976,5994
1961,5995
1922,5996
1929,5997
1943,5998
1901,5999
1919,6000
1904,6001
1875,6002
1914,6003
1902,6004
1977,6005
1966,6006
1961,6007
1985,6008
1989,6009
1992,6010
2017,6011
2006,6012
1997,6013
1982,6014
1933,6015
1939,6016
1916,6017
1937,6018
1895,6019
1926,6020
1933,6021
1904,6022
1937,6023
1931,6024
1912,6025
1943,6026
1909,6027
1911,6028
1978,6029
1954,6030
1974,6031
1959,6032
1955,6033
1958,6034
1946,6035
1945,6036
1944,6037
1938,6038
1921,6039
1900,6040
1902,6041
1942,6042
1929,6043
1934,6044
1912,6045
1973,6046
1951,6047
1997,6048
1992,6049
1991,6050
1980,6051
2019,6052
2019,6053
1965,6054
1982,6055
1998,6056
1967,6057
1946,6058
1911,6059
1947,6060
1896,6061
1900,6062
1910,6063
1941,6064
1941,6065
1925,6066
1970,6067
1957,6068
1972,6069
2003,6070
1984,6071
2016,6072
2018,6073
2003,6074
1984,6075
1981,6076
1947,6077
1942,6078
1927,6079
1910,6080
1901,6081
1898,6082
1915,6083
1921,6084
1937,6085
1952,6086
1984,6087
1987,6088
1999,6089
2003,6090
2028,6091
1987,6092
2005,6093
1977,6094
1945,6095
1913,6096
1928,6097
1906,6098
1902,6099
1882,6100
1883,6101
1925,6102
1889,6103
1941,6104
1944,6105
1935,6106
1974,6107
1978,6108
2011,6109
1980,6110
1966,6111
1971,6112
1975,6113
1958,6114
1966,6115
1955,6116
1911,6117
1941,6118
1915,6119
1960,6120
1961,6121
1980,6122
1998,6123
2005,6124
1991,6125
2010,6126
1968,6127
1979,6128
1953,6129
1945,6130
1960,6131
1915,6132
1925,6133
1908,6134
1878,6135
1904,6136
1904,6137
1957,6138
1932,6139
1928,6140
1932,6141
1906,6142
1946,6143
1924,6144
1933,6145
1930,6146
1959,6147
1971,6148
1966,6149
1973,6150
1951,6151
1993,6152
1969,6153
1963,6154
1964,6155
1959,6156
1985,6157
1999,6158
2020,6159
2023,6160
2050,6161
2026,6162
2034,6163
2026,6164
1975,6165
1946,6166
1918,6167
1948,6168
1926,6169
1939,6170
1919,6171
1914,6172
1884,6173
1892,6174
1863,6175
1886,6176
1913,6177
1904,6178
1911,6179
1895,6180
1853,6181
1888,6182
1888,6183
1873,6184
1892,6185
1912,6186
1936,6187
1967,6188
1975,6189
1984,6190
2011,6191
1998,6192
2000,6193
1968,6194
1971,6195
1945,6196
1920,6197
1903,6198
1901,6199
1905,6200
1912,6201
1915,6202
1934,6203
1925,6204
1938,6205
1913,6206
1934,6207
1953,6208
1950,6209
2010,6210
2014,6211
2000,6212
1990,6213
2003,6214
1938,6215
1945,6216
1948,6217
1953,6218
1968,6219
1955,6220
1927,6221
1934,6222
1948,6223
1903,6224
1912,6225
1900,6226
1948,6227
1951,6228
1948,6229
1929,6230
1972,6231
1982,6232
1947,6233
1918,6234
1919,6235
1913,6236
1905,6237
1870,6238
1889,6239
1953,6240
1953,6241
1967,6242
1974,6243
1939,6244
1959,6245
1948,6246
1977,6247
1984,6248
1984,6249
1969,6250
1962,6251
1944,6252
1929,6253
1931,6254
1959,6255
1980,6256
1941,6257
1929,6258
1914,6259
1901,6260
1911,6261
1869,6262
1897,6263
1915,6264
1917,6265
1939,6266
1914,6267
1942,6268
1963,6269
1965,6270
1936,6271
1946,6272
1955,6273
1913,6274
1912,6275
1917,6276
1923,6277
1922,6278
1976,6279
1995,6280
1980,6281
1969,6282
1956,6283
1947,6284
1892,6285
1925,6286
1945,6287
1936,6288
1996,6289
1996,6290
1983,6291
1985,6292
1993,6293
1973,6294
1958,6295
1928,6296
1895,6297
1879,6298
1888,6299
1901,6300
1867,6301
1890,6302
1889,6303
1879,6304
1893,6305
1942,6306
1965,6307
2023,6308
2017,6309
2019,6310
1979,6311
1985,6312
1981,6313
1964,6314
1971,6315
1986,6316
1942,6317
1894,6318
1925,6319
1891,6320
1896,6321
1898,6322
1908,6323
1892,6324
1905,6325
1910,6326
1926,6327
1942,6328
1976,6329
1957,6330
1992,6331
2005,6332
2055,6333
2033,6334
2036,6335
2006,6336
1969,6337
1955,6338
1922,6339
1945,6340
1921,6341
1887,6342
1899,6343
1905,6344
1899,6345
1882,6346
1942,6347
1937,6348
1948,6349
1940,6350
1997,6351
1984,6352
1950,6353
1961,6354
1970,6355
1975,6356
1970,6357
1943,6358
1930,6359
1928,6360
1984,6361
2038,6362
2058,6363
2091,6364
2038,6365
2027,6366
2059,6367
2023,6368
2017,6369
2006,6370
1995,6371
1919,6372
1924,6373
1885,6374
1868,6375
1878,6376
1842,6377
1870,6378
1839,6379
1852,6380
1843,6381
1863,6382
1865,6383
1894,6384
1917,6385
1926,6386
1941,6387
1967,6388
2013,6389
1992,6390
1976,6391
1995,6392
1934,6393
1978,6394
1951,6395
1938,6396
1954,6397
1921,6398
1984,6399
1997,6400
2001,6401
2013,6402
2046,6403
2051,6404
2020,6405
2022,6406
2003,6407
2006,6408
1993,6409
1995,6410
1975,6411
1966,6412
1901,6413
1887,6414
1876,6415
1895,6416
1937,6417
2054,6418
2064,6419
2052,6420
2125,6421
2162,6422
2119,6423
2076,6424
2022,6425
1960,6426
1960,6427
1906,6428
1945,6429
1921,6430
1941,6431
1904,6432
1904,6433
1918,6434
1954,6435
1917,6436
1934,6437
1920,6438
1921,6439
1863,6440
1908,6441
1882,6442
1862,6443
1915,6444
1918,6445
1952,6446
2015,6447
2071,6448
2052,6449
2073,6450
2051,6451
2045,6452
2005,6453
1993,6454
1944,6455
1920,6456
1875,6457
1894,6458
1905,6459
1888,6460
1893,6461
1899,6462
1926,6463
1957,6464
1964,6465
1941,6466
2005,6467
2005,6468
2112,6469
2121,6470
2155,6471
2193,6472
2236,6473
2212,6474
2142,6475
2090,6476
1959,6477
1947,6478
1897,6479
1859,6480
1859,6481
1816,6482
1852,6483
1870,6484
1895,6485
1959,6486
2050,6487
2104,6488
2160,6489
2189,6490
2135,6491
2119,6492
2108,6493
2027,6494
1951,6495
1940,6496
1933,6497
1889,6498
1843,6499
1830,6500
1855,6501
1905,6502
1932,6503
1906,6504
1948,6505
1919,6506
1950,6507
1955,6508
2003,6509
1974,6510
1996,6511
1959,6512
1897,6513
1939,6514
1952,6515
1959,6516
1943,6517
1986,6518
2036,6519
2022,6520
2038,6521
1994,6522
2008,6523
1971,6524
1997,6525
1943,6526
2015,6527
2003,6528
2084,6529
2138,6530
2104,6531
2133,6532
2143,6533
2158,6534
2152,6535
2081,6536
2060,6537
2055,6538
2008,6539
1965,6540
1924,6541
1892,6542
1894,6543
1889,6544
1866,6545
1885,6546
1909,6547
1928,6548
1941,6549
1963,6550
2018,6551
1965,6552
1984,6553
1997,6554
1985,6555
2004,6556
1986,6557
1987,6558
1973,6559
1970,6560
1990,6561
2023,6562
2043,6563
2048,6564
2083,6565
2135,6566
2148,6567
2116,6568
2056,6569
2019,6570
1999,6571
1946,6572
1946,6573
1947,6574
1936,6575
1895,6576
1893,6577
1908,6578
1890,6579
1946,6580
1946,6581
1938,6582
1957,6583
1940,6584
1971,6585
1972,6586
2008,6587
2109,6588
2115,6589
2183,6590
2168,6591
2180,6592
2225,6593
2222,6594
2221,6595
2196,6596
2120,6597
2035,6598
1966,6599
1926,6600
1912,6601
1858,6602
1862,6603
1972,6604
1988,6605
1966,6606
1994,6607
1962,6608
2003,6609
1976,6610
1942,6611
1992,6612
1985,6613
1984,6614
1999,6615
1967,6616
2008,6617
2000,6618
2067,6619
2093,6620
2135,6621
2128,6622
2158,6623
2217,6624
2224,6625
2226,6626
2214,6627
2169,6628
2080,6629
2034,6630
1987,6631
1944,6632
1945,6633
1895,6634
1919,6635
1896,6636
1895,6637
1910,6638
1896,6639
1951,6640
1944,6641
1979,6642
2022,6643
2014,6644
1990,6645
2030,6646
2052,6647
2085,6648
2174,6649
2280,6650
2353,6651
2365,6652
2341,6653
2261,6654
2116,6655
2021,6656
1937,6657
1825,6658
1771,6659
1833,6660
1837,6661
1878,6662
1958,6663
2095,6664
2128,6665
2118,6666
2097,6667
2114,6668
2088,6669
2007,6670
1997,6671
1972,6672
2025,6673
2103,6674
2159,6675
2155,6676
2158,6677
2101,6678
2084,6679
1992,6680
1937,6681
1938,6682
1920,6683
1905,6684
1935,6685
2022,6686
2080,6687
2124,6688
2127,6689
2170,6690
2115,6691
2112,6692
2104,6693
2132,6694
2090,6695
2074,6696
2133,6697
2183,6698
2181,6699
2267,6700
2286,6701
2290,6702
2298,6703
2231,6704
2226,6705
2197,6706
2147,6707
2180,6708
2235,6709
2269,6710
2259,6711
2216,6712
2149,6713
2120,6714
2069,6715
2030,6716
1983,6717
1959,6718
1911,6719
1909,6720
1864,6721
1950,6722
1985,6723
2028,6724
2015,6725
2063,6726
2047,6727
2099,6728
2081,6729
2109,6730
2123,6731
2159,6732
2172,6733
2167,6734
2162,6735
2160,6736
2146,6737
2258,6738
2228,6739
2211,6740
2191,6741
2148,6742
2100,6743
2082,6744
2088,6745
2082,6746
2032,6747
2026,6748
2069,6749
2142,6750
2132,6751
2131,6752
2150,6753
2153,6754
2161,6755
2200,6756
2208,6757
2216,6758
2234,6759
2243,6760
2220,6761
2205,6762
2187,6763
2185,6764
2122,6765
1994,6766
1953,6767
1894,6768
1939,6769
1959,6770
1923,6771
1956,6772
1993,6773
2013,6774
2047,6775
2103,6776
2178,6777
2120,6778
2110,6779
2063,6780
2050,6781
2060,6782
2062,6783
2130,6784
2134,6785
2208,6786
2237,6787
2241,6788
2167,6789
2143,6790
2075,6791
2085,6792
2016,6793
2050,6794
2064,6795
2051,6796
2095,6797
2080,6798
2115,6799
2111,6800
2143,6801
2087,6802
2056,6803
2057,6804
2032,6805
2019,6806
2047,6807
2062,6808
2129,6809
2123,6810
2055,6811
2022,6812
1996,6813
2014,6814
2008,6815
2030,6816
2023,6817
2090,6818
2064,6819
2115,6820
2174,6821
2205,6822
2202,6823
2217,6824
2195,6825
2168,6826
2120,6827
2073,6828
2054,6829
2015,6830
2023,6831
2030,6832
1990,6833
2021,6834
2009,6835
2015,6836
2070,6837
2088,6838
2228,6839
2267,6840
2248,6841
2260,6842
2286,6843
2285,6844
2313,6845
2276,6846
2201,6847
2122,6848
2067,6849
2015,6850
1958,6851
1926,6852
1974,6853
2008,6854
1970,6855
1992,6856
2001,6857
1990,6858
2008,6859
1998,6860
2000,6861
1992,6862
1953,6863
1979,6864
2009,6865
2049,6866
2072,6867
2055,6868
2053,6869
2088,6870
2118,6871
2128,6872
2149,6873
2173,6874
2170,6875
2216,6876
2245,6877
2182,6878
2166,6879
2138,6880
2084,6881
2007,6882
1927,6883
1904,6884
1836,6885
1864,6886
1972,6887
2015,6888
2038,6889
2085,6890
2058,6891
2059,6892
2085,6893
2089,6894
2100,6895
2117,6896
2224,6897
2264,6898
2271,6899
2250,6900
2160,6901
2090,6902
2068,6903
2002,6904
1976,6905
2012,6906
1979,6907
1997,6908
2004,6909
2054,6910
2037,6911
2047,6912
2136,6913
2139,6914
2087,6915
2184,6916
2171,6917
2218,6918
2244,6919
2192,6920
2214,6921
2178,6922
2112,6923
2069,6924
2009,6925
1991,6926
1954,6927
1946,6928
1951,6929
1949,6930
1947,6931
1904,6932
1903,6933
1897,6934
2061,6935
2122,6936
2178,6937
2156,6938
2144,6939
2155,6940
2104,6941
2114,6942
2079,6943
2088,6944
2165,6945
2137,6946
2107,6947
2032,6948
2033,6949
2059,6950
1979,6951
1928,6952
1953,6953
2000,6954
2080,6955
2087,6956
2108,6957
2080,6958
2013,6959
1973,6960
1987,6961
1992,6962
1959,6963
1994,6964
2076,6965
2048,6966
2078,6967
2056,6968
2154,6969
2177,6970
2188,6971
2191,6972
2206,6973
2211,6974
2267,6975
2259,6976
2231,6977
2204,6978
2108,6979
2027,6980
1970,6981
1875,6982
1941,6983
1966,6984
1988,6985
2011,6986
2039,6987
2039,6988
2019,6989
1999,6990
2054,6991
2070,6992
2065,6993
2077,6994
2063,6995
2055,6996
2073,6997
2049,6998
2101,6999
2166,7000
2282,7001
2352,7002
2333,7003
2368,7004
2303,7005
2204,7006
2108,7007
1991,7008
1881,7009
1829,7010
1909,7011
1980,7012
2046,7013
2184,7014
2246,7015
2228,7016
2151,7017
2108,7018
2024,7019
1974,7020
1956,7021
1945,7022
1936,7023
2015,7024
2076,7025
2086,7026
2101,7027
2111,7028
2113,7029
2096,7030
2103,7031
2108,7032
2155,7033
2194,7034
2189,7035
2171,7036
2188,7037
2172,7038
2084,7039
2063,7040
2002,7041
2001,7042
2023,7043
2067,7044
2123,7045
2330,7046
2405,7047
2418,7048
2425,7049
2383,7050
2330,7051
2214,7052
2126,7053
2038,7054
1960,7055
1918,7056
1968,7057
1990,7058
2023,7059
2011,7060
1998,7061
1993,7062
2019,7063
2087,7064
2110,7065
2164,7066
2141,7067
2135,7068
2098,7069
2055,7070
2031,7071
2014,7072
1999,7073
1964,7074
2135,7075
2272,7076
2297,7077
2310,7078
2244,7079
2182,7080
2146,7081
2147,7082
2061,7083
2017,7084
2069,7085
2072,7086
2026,7087
2069,7088
2091,7089
2111,7090
2125,7091
2168,7092
2227,7093
2287,7094
2347,7095
2344,7096
2281,7097
2226,7098
2193,7099
2260,7100
2311,7101
2315,7102
2214,7103
2157,7104
2123,7105
1995,7106
1900,7107
1893,7108
1938,7109
1977,7110
2015,7111
2065,7112
2050,7113
2066,7114
2043,7115
2050,7116
2055,7117
2111,7118
2114,7119
2161,7120
2154,7121
2203,7122
2197,7123
2265,7124
2308,7125
2346,7126
2318,7127
2222,7128
2119,7129
2094,7130
2054,7131
2022,7132
1949,7133
1973,7134
2017,7135
2118,7136
2199,7137
2318,7138
2356,7139
2340,7140
2335,7141
2225,7142
2223,7143
2166,7144
2070,7145
2035,7146
2040,7147
1993,7148
2030,7149
2048,7150
2073,7151
2134,7152
2137,7153
2096,7154
2093,7155
2072,7156
2072,7157
2076,7158
2112,7159
2104,7160
2068,7161
2124,7162
2154,7163
2305,7164
2443,7165
2479,7166
2417,7167
2403,7168
2321,7169
2226,7170
2153,7171
2096,7172
2059,7173
2021,7174
2036,7175
2044,7176
2023,7177
2015,7178
2052,7179
2072,7180
2051,7181
2047,7182
2071,7183
2167,7184
2291,7185
2336,7186
2363,7187
2366,7188
2328,7189
2314,7190
2374,7191
2389,7192
2332,7193
2273,7194
2258,7195
2262,7196
2164,7197
2083,7198
2095,7199
2054,7200
2064,7201
2071,7202
2134,7203
2130,7204
2135,7205
2152,7206
2180,7207
2176,7208
2227,7209
2232,7210
2175,7211
2165,7212
2129,7213
2107,7214
2096,7215
2076,7216
2144,7217
2144,7218
2144,7219
2226,7220
2240,7221
2195,7222
2208,7223
2200,7224
2188,7225
2215,7226
2269,7227
2252,7228
2195,7229
2172,7230
2072,7231
2050,7232
2042,7233
2011,7234
2052,7235
2156,7236
2353,7237
2373,7238
2337,7239
2333,7240
2276,7241
2187,7242
2160,7243
2072,7244
2071,7245
2099,7246
2276,7247
2367,7248
2384,7249
2343,7250
2338,7251
2316,7252
2269,7253
2188,7254
2205,7255
2218,7256
2213,7257
2120,7258
2092,7259
2071,7260
2121,7261
2100,7262
2109,7263
2163,7264
2191,7265
2214,7266
2185,7267
2231,7268
2341,7269
2441,7270
2540,7271
2571,7272
2510,7273
2351,7274
2205,7275
2086,7276
2018,7277
2099,7278
2224,7279
2210,7280
2196,7281
2174,7282
2152,7283
2203,7284
2212,7285
2273,7286
2350,7287
2343,7288
2322,7289
2216,7290
2102,7291
2079,7292
2048,7293
1974,7294
1971,7295
2051,7296
2102,7297
2117,7298
2162,7299
2231,7300
2227,7301
2229,7302
2249,7303
2213,7304
2226,7305
2315,7306
2354,7307
2321,7308
2259,7309
2188,7310
2192,7311
2198,7312
2189,7313
2121,7314
2097,7315
2101,7316
2119,7317
2111,7318
2120,7319
2119,7320
2095,7321
2103,7322
2144,7323
2158,7324
2335,7325
2398,7326
2386,7327
2427,7328
2508,7329
2437,7330
2394,7331
2433,7332
2440,7333
2437,7334
2402,7335
2297,7336
2215,7337
2033,7338
1953,7339
1983,7340
1989,7341
2009,7342
2032,7343
2099,7344
2311,7345
2409,7346
2420,7347
2381,7348
2331,7349
2376,7350
2320,7351
2254,7352
2145,7353
2171,7354
2195,7355
2124,7356
2045,7357
1970,7358
1934,7359
1986,7360
2037,7361
2084,7362
2134,7363
2209,7364
2196,7365
2174,7366
2190,7367
2265,7368
2253,7369
2277,7370
2199,7371
2159,7372
2187,7373
2225,7374
2288,7375
2331,7376
2317,7377
2286,7378
2335,7379
2268,7380
2235,7381
2130,7382
2036,7383
2051,7384
2043,7385
2115,7386
2196,7387
2257,7388
2319,7389
2303,7390
2256,7391
2234,7392
2281,7393
2314,7394
2254,7395
2219,7396
2240,7397
2158,7398
2073,7399
1983,7400
2059,7401
2097,7402
2334,7403
2565,7404
2560,7405
2447,7406
2306,7407
2222,7408
2091,7409
2007,7410
2057,7411
2075,7412
2111,7413
2156,7414
2156,7415
2152,7416
2184,7417
2311,7418
2434,7419
2514,7420
2508,7421
2444,7422
2446,7423
2366,7424
2261,7425
2179,7426
2040,7427
1980,7428
1999,7429
2004,7430
2062,7431
2115,7432
2112,7433
2127,7434
2162,7435
2154,7436
2130,7437
2104,7438
2090,7439
2127,7440
2141,7441
2179,7442
2176,7443
2190,7444
2241,7445
2301,7446
2341,7447
2217,7448
2218,7449
2218,7450
2244,7451
2242,7452
2260,7453
2212,7454
2190,7455
2200,7456
2127,7457
2115,7458
2119,7459
2215,7460
2364,7461
2432,7462
2440,7463
2404,7464
2287,7465
2235,7466
2155,7467
2072,7468
2024,7469
1972,7470
2028,7471
2039,7472
2059,7473
2148,7474
2144,7475
2208,7476
2344,7477
2471,7478
2573,7479
2461,7480
2268,7481
2162,7482
2097,7483
1993,7484
2021,7485
2182,7486
2379,7487
2375,7488
2349,7489
2273,7490
2204,7491
2147,7492
2095,7493
2075,7494
1999,7495
2080,7496
2132,7497
2153,7498
2185,7499
2187,7500
2161,7501
2176,7502
2145,7503
2088,7504
2035,7505
2112,7506
2140,7507
2181,7508
2217,7509
2191,7510
2156,7511
2095,7512
2077,7513
2175,7514
2144,7515
2120,7516
2130,7517
2067,7518
2101,7519
2094,7520
2105,7521
2078,7522
2130,7523
2248,7524
2285,7525
2313,7526
2366,7527
2362,7528
2382,7529
2362,7530
2294,7531
2172,7532
2129,7533
2161,7534
2227,7535
2225,7536
2356,7537
2384,7538
2316,7539
2165,7540
2071,7541
2133,7542
2158,7543
2288,7544
2285,7545
2138,7546
2095,7547
2068,7548
2004,7549
1969,7550
1945,7551
1993,7552
2038,7553
2102,7554
2078,7555
2086,7556
2083,7557
2047,7558
2071,7559
2215,7560
2288,7561
2293,7562
2271,7563
2215,7564
2196,7565
2225,7566
2241,7567
2281,7568
2264,7569
2208,7570
2084,7571
2100,7572
2039,7573
2009,7574
2035,7575
2063,7576
2055,7577
2076,7578
2154,7579
2220,7580
2230,7581
2225,7582
2372,7583
2331,7584
2439,7585
2370,7586
2314,7587
2232,7588
2089,7589
2076,7590
2025,7591
2024,7592
1966,7593
2051,7594
2149,7595
2137,7596
2164,7597
2123,7598
2146,7599
2161,7600
2148,7601
2079,7602
2072,7603
2009,7604
2020,7605
2079,7606
2085,7607
2101,7608
2081,7609
2097,7610
2125,7611
2137,7612
2121,7613
2163,7614
2191,7615
2253,7616
2324,7617
2272,7618
2263,7619
2232,7620
2280,7621
2231,7622
2181,7623
2128,7624
2054,7625
2000,7626
1951,7627
1943,7628
1996,7629
2055,7630
2122,7631
2087,7632
2080,7633
2129,7634
2233,7635
2274,7636
2257,7637
2207,7638
2120,7639
2055,7640
2014,7641
2053,7642
2018,7643
2037,7644
2059,7645
2103,7646
2173,7647
2189,7648
2195,7649
2288,7650
2325,7651
2450,7652
2490,7653
2481,7654
2439,7655
2258,7656
2085,7657
1993,7658
1950,7659
1915,7660
1955,7661
1948,7662
2034,7663
2022,7664
2010,7665
2097,7666
2209,7667
2231,7668
2264,7669
2216,7670
2146,7671
2079,7672
2028,7673
1999,7674
1979,7675
2060,7676
2064,7677
2177,7678
2206,7679
2152,7680
2116,7681
2108,7682
2251,7683
2387,7684
2419,7685
2399,7686
2299,7687
2206,7688
2009,7689
1933,7690
1800,7691
1793,7692
1882,7693
1908,7694
1917,7695
1966,7696
2011,7697
2015,7698
2009,7699
2043,7700
2069,7701
2082,7702
2059,7703
2099,7704
2107,7705
2155,7706
2149,7707
2230,7708
2199,7709
2239,7710
2261,7711
2207,7712
2193,7713
2203,7714
2179,7715
2195,7716
2219,7717
2201,7718
2192,7719
2207,7720
2247,7721
2227,7722
2108,7723
2026,7724
1959,7725
2003,7726
2011,7727
2043,7728
2072,7729
2194,7730
2307,7731
2375,7732
2384,7733
2326,7734
2314,7735
2240,7736
2187,7737
2054,7738
1947,7739
1894,7740
1837,7741
1739,7742
1864,7743
1893,7744
1956,7745
1994,7746
2060,7747
2063,7748
2047,7749
2076,7750
2099,7751
2128,7752
2128,7753
2117,7754
2079,7755
2137,7756
2136,7757
2139,7758
2135,7759
2172,7760
2125,7761
2108,7762
2107,7763
2146,7764
2284,7765
2484,7766
2499,7767
2370,7768
2206,7769
2074,7770
1941,7771
1835,7772
1719,7773
1728,7774
1793,7775
1867,7776
1962,7777
1973,7778
2005,7779
2042,7780
2045,7781
2079,7782
2056,7783
2104,7784
2082,7785
2133,7786
2163,7787
2188,7788
2213,7789
2210,7790
2195,7791
2161,7792
2222,7793
2268,7794
2360,7795
2330,7796
2281,7797
2198,7798
2165,7799
2128,7800
2045,7801
2009,7802
2039,7803
2075,7804
2000,7805
2003,7806
1969,7807
1995,7808
2109,7809
2118,7810
2096,7811
2096,7812
2058,7813
2060,7814
2029,7815
1961,7816
1959,7817
2019,7818
2123,7819
2224,7820
2263,7821
2212,7822
2136,7823
2066,7824
1991,7825
1982,7826
2004,7827
1984,7828
2078,7829
2129,7830
2111,7831
2100,7832
2059,7833
2192,7834
2181,7835
2129,7836
2063,7837
2055,7838
2105,7839
2141,7840
2173,7841
2148,7842
2090,7843
2018,7844
1936,7845
1822,7846
1845,7847
1902,7848
2018,7849
2041,7850
2068,7851
2077,7852
2073,7853
2065,7854
2016,7855
2028,7856
2044,7857
2088,7858
2132,7859
2168,7860
2161,7861
2168,7862
2180,7863
2163,7864
2143,7865
2111,7866
2245,7867
2325,7868
2324,7869
2210,7870
2190,7871
2141,7872
2039,7873
1937,7874
1888,7875
1853,7876
1830,7877
1803,7878
1862,7879
1865,7880
1919,7881
1988,7882
2007,7883
2085,7884
2227,7885
2236,7886
2257,7887
2248,7888
2182,7889
2080,7890
1991,7891
2003,7892
2138,7893
2216,7894
2336,7895
2318,7896
2266,7897
2123,7898
2044,7899
1971,7900
1936,7901
1846,7902
1875,7903
1962,7904
2007,7905
1975,7906
1957,7907
1941,7908
1912,7909
1934,7910
2001,7911
2023,7912
2077,7913
2074,7914
2058,7915
2048,7916
2071,7917
2030,7918
2027,7919
2044,7920
2048,7921
2004,7922
1962,7923
1922,7924
1927,7925
2057,7926
2208,7927
2312,7928
2340,7929
2326,7930
2308,7931
2188,7932
2042,7933
2019,7934
1982,7935
1991,7936
1956,7937
1894,7938
1904,7939
1893,7940
1887,7941
1971,7942
1997,7943
2042,7944
2109,7945
2138,7946
2210,7947
2311,7948
2266,7949
2239,7950
2144,7951
2010,7952
1991,7953
1949,7954
1966,7955
1976,7956
1998,7957
1965,7958
2008,7959
2003,7960
2021,7961
1976,7962
1988,7963
2007,7964
2046,7965
2030,7966
1977,7967
1978,7968
1946,7969
1896,7970
1912,7971
1963,7972
1986,7973
2026,7974
2074,7975
2247,7976
2339,7977
2322,7978
2264,7979
2275,7980
2175,7981
2112,7982
2096,7983
2084,7984
1971,7985
1954,7986
1970,7987
2071,7988
2104,7989
2073,7990
2077,7991
2031,7992
2015,7993
1953,7994
1937,7995
1973,7996
1948,7997
1916,7998
1928,7999
1976,8000
2097,8001
2207,8002
2222,8003
2148,8004
2080,8005
2054,8006
2050,8007
1943,8008
1908,8009
1898,8010
1959,8011
1982,8012
1956,8013
1959,8014
2036,8015
2199,8016
2210,8017
2168,8018
2124,8019
2062,8020
1961,8021
1906,8022
1875,8023
1904,8024
1875,8025
1876,8026
1910,8027
1997,8028
2046,8029
2081,8030
2075,8031
2077,8032
2021,8033
1956,8034
1975,8035
1993,8036
1951,8037
2001,8038
1996,8039
2046,8040
2014,8041
1999,8042
2026,8043
2004,8044
1962,8045
2038,8046
2063,8047
2082,8048
2082,8049
2061,8050
2030,8051
2060,8052
2020,8053
1987,8054
1960,8055
1975,8056
1992,8057
1967,8058
1982,8059
2048,8060
2046,8061
2134,8062
2215,8063
2168,8064
2129,8065
2115,8066
2148,8067
2172,8068
2161,8069
2140,8070
2078,8071
1992,8072
1955,8073
1928,8074
1846,8075
1882,8076
1949,8077
1956,8078
1956,8079
1990,8080
1961,8081
1974,8082
1996,8083
2070,8084
2108,8085
2087,8086
2048,8087
2054,8088
2033,8089
1979,8090
1964,8091
1964,8092
1940,8093
1954,8094
1995,8095
1993,8096
1954,8097
1880,8098
1935,8099
1936,8100
1943,8101
1968,8102
2005,8103
2019,8104
2048,8105
2077,8106
2131,8107
2175,8108
2148,8109
2147,8110
2209,8111
2164,8112
2073,8113
1975,8114
1911,8115
1855,8116
1948,8117
2063,8118
2113,8119
2133,8120
2079,8121
2021,8122
1929,8123
1915,8124
1822,8125
1867,8126
1831,8127
1890,8128
1902,8129
1915,8130
1951,8131
1959,8132
1979,8133
2021,8134
2034,8135
2163,8136
2150,8137
2155,8138
2119,8139
2045,8140
1934,8141
1892,8142
1858,8143
1831,8144
1852,8145
1922,8146
1973,8147
2002,8148
2048,8149
2031,8150
2010,8151
1989,8152
1955,8153
1948,8154
1943,8155
1975,8156
1991,8157
2046,8158
2087,8159
2074,8160
2054,8161
2040,8162
1999,8163
2043,8164
2048,8165
2044,8166
2014,8167
2045,8168
2136,8169
2181,8170
2115,8171
2097,8172
2032,8173
1938,8174
1777,8175
1795,8176
2004,8177
2281,8178
2472,8179
2441,8180
2344,8181
2223,8182
2063,8183
1932,8184
1846,8185
1798,8186
1765,8187
1835,8188
2047,8189
2167,8190
2186,8191
2215,8192
2169,8193
2131,8194
1951,8195
1778,8196
1681,8197
1681,8198
1702,8199
1811,8200
1840,8201
1889,8202
1936,8203
1967,8204
1928,8205
1956,8206
1982,8207
1973,8208
2005,8209
2000,8210
2018,8211
2029,8212
2051,8213
2057,8214
2050,8215
2039,8216
1987,8217
1969,8218
1952,8219
1991,8220
1985,8221
1984,8222
1971,8223
2010,8224
2000,8225
2002,8226
2050,8227
2088,8228
2093,8229
2108,8230
2034,8231
2000,8232
1998,8233
2029,8234
2059,8235
2115,8236
2092,8237
1993,8238
1932,8239
1880,8240
1889,8241
1920,8242
1959,8243
2046,8244
2075,8245
2215,8246
2379,8247
2490,8248
2452,8249
2320,8250
2209,8251
2072,8252
1882,8253
1760,8254
1726,8255
1767,8256
1841,8257
1899,8258
1931,8259
1939,8260
1988,8261
1962,8262
1959,8263
1949,8264
1935,8265
1941,8266
1934,8267
1931,8268
1998,8269
2018,8270
2063,8271
2032,8272
2048,8273
2008,8274
1968,8275
1938,8276
1962,8277
2064,8278
2109,8279
2092,8280
2045,8281
1989,8282
1960,8283
1947,8284
1930,8285
1944,8286
1911,8287
1983,8288
2046,8289
2119,8290
2193,8291
2142,8292
2071,8293
1993,8294
1930,8295
1871,8296
1869,8297
1889,8298
1941,8299
1952,8300
1981,8301
1951,8302
1945,8303
1921,8304
1956,8305
2007,8306
2044,8307
2081,8308
2141,8309
2171,8310
2143,8311
2101,8312
2057,8313
1961,8314
1890,8315
1869,8316
1902,8317
1920,8318
1935,8319
1978,8320
1998,8321
2019,8322
2046,8323
2071,8324
2119,8325
2111,8326
2092,8327
2049,8328
2004,8329
2061,8330
2117,8331
2118,8332
2165,8333
2141,8334
2168,8335
2159,8336
2111,8337
1959,8338
1885,8339
1847,8340
1767,8341
1756,8342
1776,8343
1894,8344
1939,8345
2014,8346
2010,8347
2004,8348
2042,8349
2012,8350
2029,8351
1999,8352
2035,8353
2125,8354
2135,8355
2151,8356
2034,8357
2055,8358
1973,8359
1925,8360
1879,8361
1914,8362
1938,8363
1934,8364
1954,8365
1965,8366
1983,8367
1996,8368
2039,8369
2120,8370
2119,8371
2090,8372
2022,8373
2056,8374
1955,8375
2007,8376
2065,8377
2026,8378
1965,8379
1972,8380
1927,8381
1915,8382
1879,8383
1843,8384
1922,8385
1978,8386
2023,8387
2067,8388
2027,8389
2048,8390
2000,8391
1967,8392
1933,8393
1939,8394
2034,8395
2032,8396
2032,8397
2013,8398
2014,8399
1948,8400
1918,8401
1951,8402
1950,8403
1931,8404
1965,8405
2017,8406
2082,8407
2265,8408
2255,8409
2167,8410
2148,8411
2049,8412
2020,8413
2002,8414
1983,8415
1944,8416
1859,8417
1867,8418
1893,8419
1851,8420
1877,8421
1935,8422
1970,8423
1988,8424
2024,8425
2038,8426
2132,8427
2169,8428
2195,8429
2135,8430
2086,8431
2036,8432
1983,8433
1914,8434
1827,8435
1719,8436
1734,8437
1785,8438
1879,8439
1921,8440
1927,8441
1952,8442
1975,8443
1988,8444
1985,8445
2007,8446
2052,8447
2070,8448
2098,8449
2048,8450
2011,8451
1969,8452
1963,8453
2014,8454
2052,8455
2284,8456
2458,8457
2417,8458
2310,8459
2176,8460
1991,8461
1882,8462
1767,8463
1722,8464
1708,8465
1825,8466
1899,8467
1935,8468
1992,8469
2004,8470
2003,8471
1929,8472
1924,8473
1874,8474
1831,8475
1825,8476
1796,8477
1844,8478
1819,8479
1924,8480
1963,8481
1978,8482
2000,8483
2025,8484
2078,8485
2080,8486
2127,8487
2193,8488
2219,8489
2195,8490
2169,8491
2169,8492
2115,8493
1983,8494
1925,8495
1969,8496
1992,8497
1957,8498
1956,8499
1964,8500
1951,8501
1988,8502
1999,8503
2139,8504
2216,8505
2139,8506
2109,8507
2049,8508
1941,8509
1896,8510
1850,8511
1836,8512
1852,8513
1908,8514
1901,8515
1977,8516
1962,8517
1920,8518
1930,8519
1939,8520
1986,8521
1976,8522
2034,8523
2017,8524
2007,8525
1984,8526
1939,8527
2003,8528
1998,8529
2042,8530
2024,8531
2000,8532
2029,8533
2119,8534
2217,8535
2280,8536
2279,8537
2208,8538
2053,8539
1923,8540
1837,8541
1765,8542
1674,8543
1755,8544
1803,8545
1867,8546
1899,8547
1942,8548
2001,8549
1936,8550
1984,8551
1955,8552
1966,8553
1961,8554
1950,8555
1938,8556
1927,8557
1947,8558
1933,8559
1957,8560
1964,8561
1964,8562
2007,8563
2020,8564
2020,8565
2011,8566
2027,8567
2040,8568
2013,8569
2003,8570
2007,8571
1968,8572
1965,8573
1927,8574
1965,8575
1907,8576
1948,8577
1928,8578
1924,8579
1914,8580
1968,8581
1961,8582
1968,8583
1993,8584
2065,8585
2122,8586
2111,8587
2130,8588
2099,8589
2072,8590
2060,8591
2018,8592
1997,8593
2013,8594
2006,8595
2036,8596
2021,8597
2134,8598
2336,8599
2585,8600
2683,8601
2499,8602
2334,8603
2090,8604
1823,8605
1669,8606
1617,8607
1628,8608
1670,8609
1749,8610
1753,8611
1758,8612
1795,8613
1824,8614
1884,8615
1900,8616
1899,8617
1891,8618
1913,8619
1913,8620
1921,8621
1944,8622
1952,8623
1981,8624
1989,8625
1998,8626
2001,8627
1981,8628
1971,8629
2010,8630
1990,8631
1952,8632
1929,8633
1961,8634
1911,8635
1932,8636
1925,8637
1927,8638
1916,8639
1927,8640
1914,8641
1964,8642
1960,8643
1998,8644
1993,8645
1994,8646
1995,8647
2000,8648
1985,8649
1988,8650
1973,8651
1981,8652
1943,8653
1931,8654
1934,8655
1968,8656
1955,8657
2044,8658
2102,8659
2180,8660
2187,8661
2193,8662
2119,8663
2040,8664
1925,8665
1783,8666
1787,8667
1861,8668
1943,8669
1910,8670
1928,8671
1924,8672
1888,8673
1897,8674
1887,8675
1904,8676
1897,8677
1935,8678
2056,8679
2118,8680
2234,8681
2321,8682
2343,8683
2256,8684
2129,8685
2013,8686
1836,8687
1792,8688
1738,8689
1652,8690
1647,8691
1781,8692
1890,8693
1875,8694
1850,8695
1866,8696
1905,8697
1899,8698
1914,8699
1916,8700
1930,8701
1979,8702
1964,8703
1977,8704
1985,8705
1954,8706
1980,8707
2003,8708
1999,8709
1970,8710
2000,8711
1963,8712
1945,8713
1931,8714
1931,8715
1913,8716
1914,8717
1942,8718
1895,8719
1893,8720
1946,8721
1947,8722
1972,8723
1952,8724
1957,8725
1982,8726
2005,8727
2026,8728
2044,8729
2042,8730
2073,8731
2109,8732
2096,8733
2055,8734
1996,8735
2042,8736
2029,8737
2176,8738
2477,8739
2509,8740
2373,8741
2286,8742
2131,8743
1852,8744
1592,8745
1464,8746
1470,8747
1527,8748
1675,8749
1770,8750
1795,8751
1813,8752
1788,8753
1856,8754
1830,8755
1854,8756
1828,8757
1812,8758
1851,8759
1822,8760
1847,8761
1822,8762
1907,8763
1963,8764
2031,8765
2034,8766
2025,8767
2011,8768
2044,8769
2023,8770
1990,8771
1942,8772
1960,8773
1887,8774
1915,8775
1875,8776
1889,8777
1927,8778
1879,8779
1905,8780
1929,8781
1898,8782
1905,8783
1916,8784
1939,8785
1988,8786
1958,8787
1994,8788
1963,8789
1953,8790
1921,8791
1945,8792
1906,8793
1884,8794
1886,8795
1880,8796
1878,8797
1881,8798
1887,8799
1880,8800
1888,8801
1920,8802
1934,8803
1930,8804
1963,8805
1979,8806
2092,8807
2286,8808
2410,8809
2422,8810
2403,8811
2228,8812
1998,8813
1783,8814
1616,8815
1501,8816
1427,8817
1424,8818
1551,8819
1649,8820
1715,8821
1851,8822
1894,8823
1930,8824
2017,8825
2232,8826
2235,8827
2155,8828
2068,8829
2002,8830
1874,8831
1799,8832
1705,8833
1556,8834
1559,8835
1606,8836
1725,8837
1791,8838
1872,8839
1927,8840
1943,8841
1958,8842
1958,8843
1941,8844
1949,8845
1901,8846
1954,8847
1928,8848
1916,8849
1859,8850
1837,8851
1834,8852
1811,8853
1805,8854
1808,8855
1803,8856
1798,8857
1784,8858
1796,8859
1808,8860
1836,8861
1833,8862
1856,8863
1860,8864
1894,8865
1877,8866
1908,8867
1897,8868
1874,8869
1866,8870
1842,8871
1842,8872
1822,8873
1816,8874
1783,8875
1806,8876
1796,8877
1828,8878
1816,8879
1851,8880
1810,8881
1824,8882
1849,8883
1877,8884
1899,8885
1885,8886
1900,8887
1885,8888
1908,8889
1930,8890
2011,8891
2095,8892
2100,8893
2050,8894
2000,8895
1901,8896
1774,8897
1696,8898
1686,8899
1683,8900
1674,8901
1697,8902
1788,8903
1828,8904
1846,8905
1902,8906
2015,8907
2038,8908
1992,8909
1958,8910
1929,8911
1799,8912
1691,8913
1731,8914
1674,8915
1679,8916
1641,8917
1623,8918
1659,8919
1795,8920
1839,8921
1874,8922
1934,8923
2066,8924
2235,8925
2382,8926
2360,8927
2254,8928
2118,8929
1974,8930
1883,8931
1692,8932
1589,8933
1545,8934
1555,8935
1544,8936
1522,8937
1564,8938
1594,8939
1653,8940
1688,8941
1688,8942
1676,8943
1723,8944
1791,8945
1801,8946
1847,8947
1811,8948
1811,8949
1790,8950
1795,8951
1799,8952
1767,8953
1752,8954
1761,8955
1763,8956
1758,8957
1752,8958
1754,8959
1751,8960
1735,8961
1748,8962
1762,8963
1802,8964
1819,8965
1806,8966
1860,8967
1831,8968
1808,8969
1779,8970
1803,8971
1757,8972
1755,8973
1713,8974
1700,8975
1720,8976
1662,8977
1725,8978
1751,8979
1805,8980
2000,8981
2253,8982
2363,8983
2357,8984
2233,8985
2048,8986
1843,8987
1674,8988
1505,8989
1414,8990
1339,8991
1364,8992
1464,8993
1534,8994
1602,8995
1605,8996
1680,8997
1801,8998
1884,8999
1928,9000
1936,9001
1875,9002
1865,9003
1829,9004
1738,9005
1691,9006
1704,9007
1758,9008
1907,9009
1965,9010
1943,9011
1891,9012
1862,9013
1857,9014
1879,9015
1874,9016
1905,9017
1883,9018
1914,9019
1959,9020
1927,9021
1912,9022
1840,9023
1734,9024
1622,9025
1631,9026
1586,9027
1545,9028
1543,9029
1563,9030
1616,9031
1630,9032
1612,9033
1595,9034
1628,9035
1643,9036
1688,9037
1747,9038
1824,9039
1797,9040
1784,9041
1797,9042
1759,9043
1777,9044
1757,9045
1716,9046
1697,9047
1686,9048
1679,9049
1711,9050
1701,9051
1723,9052
1715,9053
1666,9054
1708,9055
1674,9056
1683,9057
1661,9058
1688,9059
1694,9060
1714,9061
1734,9062
1734,9063
1798,9064
1787,9065
1800,9066
1789,9067
1796,9068
1793,9069
1747,9070
1748,9071
1694,9072
1685,9073
1695,9074
1710,9075
1719,9076
1711,9077
1730,9078
1707,9079
1708,9080
1713,9081
1778,9082
1789,9083
1800,9084
1851,9085
1878,9086
1973,9087
2057,9088
2167,9089
2238,9090
2214,9091
2159,9092
2008,9093
1840,9094
1708,9095
1621,9096
1576,9097
1600,9098
1614,9099
1644,9100
1702,9101
1617,9102
1618,9103
1595,9104
1580,9105
1590,9106
1634,9107
1783,9108
1925,9109
1972,9110
1871,9111
1803,9112
1724,9113
1616,9114
1582,9115
1620,9116
1747,9117
1871,9118
1981,9119
2059,9120
2020,9121
1924,9122
1818,9123
1722,9124
1579,9125
1511,9126
1389,9127
1367,9128
1440,9129
1525,9130
1555,9131
1554,9132
1626,9133
1616,9134
1646,9135
1656,9136
1673,9137
1682,9138
1708,9139
1703,9140
1676,9141
1718,9142
1711,9143
1780,9144
1755,9145
1801,9146
1802,9147
1795,9148
1807,9149
1781,9150
1748,9151
1708,9152
1698,9153
1662,9154
1627,9155
1585,9156
1622,9157
1624,9158
1696,9159
1755,9160
1799,9161
1855,9162
1912,9163
1951,9164
1936,9165
1910,9166
1908,9167
1902,9168
1874,9169
1829,9170
1808,9171
1791,9172
1755,9173
1795,9174
1779,9175
1729,9176
1663,9177
1735,9178
1887,9179
2045,9180
2120,9181
2058,9182
1982,9183
1904,9184
1876,9185
1834,9186
1856,9187
1903,9188
1987,9189
1995,9190
1941,9191
1888,9192
1809,9193
1684,9194
1528,9195
1481,9196
1423,9197
1430,9198
1443,9199
1521,9200
1503,9201
1560,9202
1565,9203
1600,9204
1630,9205
1670,9206
1726,9207
1769,9208
1795,9209
1833,9210
1839,9211
1905,9212
1987,9213
2010,9214
2003,9215
1895,9216
1840,9217
1773,9218
1826,9219
1769,9220
1608,9221
1543,9222
1514,9223
1529,9224
1622,9225
1680,9226
1703,9227
1708,9228
1737,9229
1740,9230
1692,9231
1663,9232
1667,9233
1668,9234
1698,9235
1714,9236
1699,9237
1757,9238
1785,9239
1885,9240
1980,9241
2172,9242
2460,9243
2575,9244
2544,9245
2392,9246
2168,9247
1989,9248
1822,9249
1749,9250
1548,9251
1416,9252
1414,9253
1474,9254
1463,9255
1567,9256
1699,9257
1944,9258
2183,9259
2483,9260
2760,9261
2840,9262
2814,9263
2636,9264
2369,9265
2040,9266
1646,9267
1303,9268
1168,9269
1402,9270
1615,9271
1760,9272
1935,9273
1886,9274
1700,9275
1482,9276
1304,9277
1138,9278
1093,9279
1156,9280
1259,9281
1326,9282
1536,9283
1709,9284
1885,9285
1919,9286
1956,9287
1900,9288
1793,9289
1672,9290
1590,9291
1568,9292
1588,9293
1718,9294
1710,9295
1690,9296
1635,9297
1634,9298
1658,9299
1631,9300
1682,9301
1695,9302
1712,9303
1738,9304
1751,9305
1783,9306
1899,9307
1937,9308
1886,9309
1848,9310
1731,9311
1731,9312
1714,9313
1674,9314
1591,9315
1607,9316
1601,9317
1630,9318
1615,9319
1611,9320
1680,9321
1722,9322
1776,9323
1745,9324
1788,9325
1815,9326
1852,9327
1902,9328
2070,9329
2142,9330
2144,9331
2301,9332
2340,9333
2224,9334
2000,9335
1824,9336
1665,9337
1498,9338
1468,9339
1478,9340
1457,9341
1557,9342
1657,9343
1727,9344
1743,9345
1762,9346
1732,9347
1696,9348
1732,9349
1775,9350
1730,9351
1663,9352
1632,9353
1692,9354
1777,9355
1912,9356
1952,9357
1927,9358
1877,9359
1828,9360
1747,9361
1739,9362
1819,9363
1944,9364
2006,9365
2074,9366
2075,9367
2005,9368
1889,9369
1834,9370
1702,9371
1594,9372
1586,9373
1491,9374
1429,9375
1418,9376
1404,9377
1443,9378
1516,9379
1599,9380
1615,9381
1666,9382
1715,9383
1733,9384
1763,9385
1795,9386
1837,9387
1820,9388
1809,9389
1742,9390
1743,9391
1770,9392
1763,9393
1787,9394
1899,9395
1898,9396
1870,9397
1861,9398
1814,9399
1792,9400
1766,9401
1701,9402
1669,9403
1664,9404
1630,9405
1686,9406
1697,9407
1728,9408
1724,9409
1779,9410
1755,9411
1825,9412
1811,9413
1777,9414
1794,9415
1781,9416
1800,9417
1804,9418
1860,9419
1888,9420
1971,9421
2162,9422
2281,9423
2228,9424
2048,9425
1838,9426
1678,9427
1556,9428
1490,9429
1439,9430
1515,9431
1572,9432
1695,9433
1756,9434
1793,9435
1819,9436
1814,9437
1802,9438
1793,9439
1779,9440
1730,9441
1669,9442
1687,9443
1703,9444
1767,9445
1827,9446
1791,9447
1780,9448
1776,9449
1801,9450
1767,9451
1728,9452
1648,9453
1609,9454
1590,9455
1608,9456
1597,9457
1657,9458
1707,9459
1818,9460
1983,9461
2080,9462
2116,9463
2057,9464
2039,9465
1922,9466
1847,9467
1786,9468
1660,9469
1565,9470
1539,9471
1539,9472
1600,9473
1812,9474
1978,9475
2002,9476
1930,9477
1808,9478
1707,9479
1680,9480
1710,9481
1720,9482
1754,9483
1856,9484
1827,9485
1788,9486
1869,9487
1882,9488
1780,9489
1763,9490
1735,9491
1697,9492
1680,9493
1680,9494
1654,9495
1631,9496
1606,9497
1640,9498
1677,9499
1687,9500
1747,9501
1831,9502
1909,9503
1972,9504
2031,9505
2089,9506
2208,9507
2170,9508
2118,9509
2021,9510
1875,9511
1744,9512
1681,9513
1605,9514
1612,9515
1666,9516
1766,9517
1799,9518
1770,9519
1685,9520
1640,9521
1685,9522
1792,9523
1895,9524
1960,9525
1939,9526
1865,9527
1817,9528
1846,9529
1822,9530
1824,9531
1835,9532
1816,9533
1768,9534
1719,9535
1648,9536
1620,9537
1613,9538
1633,9539
1613,9540
1681,9541
1716,9542
1775,9543
1820,9544
1867,9545
1923,9546
1896,9547
1902,9548
1870,9549
1848,9550
1778,9551
1764,9552
1769,9553
1816,9554
1910,9555
1986,9556
1931,9557
1857,9558
1793,9559
1767,9560
1716,9561
1679,9562
1613,9563
1634,9564
1710,9565
1783,9566
1807,9567
1774,9568
1800,9569
1783,9570
1734,9571
1701,9572
1689,9573
1687,9574
1716,9575
1797,9576
1804,9577
1851,9578
1853,9579
1922,9580
1950,9581
1966,9582
1948,9583
1966,9584
1969,9585
1967,9586
1900,9587
1808,9588
1812,9589
1841,9590
1851,9591
1843,9592
1866,9593
1835,9594
1815,9595
1800,9596
1808,9597
1871,9598
2013,9599
2100,9600
2091,9601
2053,9602
2033,9603
1910,9604
1776,9605
1722,9606
1619,9607
1560,9608
1525,9609
1522,9610
1557,9611
1600,9612
1617,9613
1653,9614
1674,9615
1688,9616
1679,9617
1747,9618
1799,9619
1855,9620
1886,9621
1855,9622
1849,9623
1849,9624
1862,9625
1858,9626
1872,9627
1901,9628
1870,9629
1891,9630
1913,9631
1977,9632
1943,9633
1870,9634
1822,9635
1780,9636
1778,9637
1721,9638
1713,9639
1706,9640
1721,9641
1699,9642
1724,9643
1695,9644
1769,9645
1803,9646
1877,9647
1908,9648
1918,9649
1881,9650
1877,9651
1826,9652
1790,9653
1870,9654
2039,9655
2100,9656
2138,9657
2073,9658
1978,9659
1877,9660
1864,9661
1790,9662
1726,9663
1737,9664
1826,9665
1829,9666
1809,9667
1760,9668
1734,9669
1738,9670
1804,9671
1779,9672
1758,9673
1738,9674
1721,9675
1703,9676
1687,9677
1699,9678
1691,9679
1731,9680
1796,9681
1902,9682
1979,9683
2037,9684
2005,9685
1961,9686
1913,9687
1879,9688
1863,9689
1846,9690
1822,9691
1747,9692
1804,9693
1889,9694
1943,9695
1967,9696
1917,9697
1904,9698
1873,9699
1860,9700
1836,9701
1772,9702
1674,9703
1659,9704
1686,9705
1710,9706
1730,9707
1783,9708
1782,9709
1843,9710
1834,9711
1808,9712
1814,9713
1753,9714
1780,9715
1803,9716
1852,9717
1942,9718
2084,9719
2193,9720
2274,9721
2270,9722
2184,9723
2048,9724
1910,9725
1742,9726
1612,9727
1434,9728
1399,9729
1440,9730
1544,9731
1636,9732
1679,9733
1719,9734
1745,9735
1789,9736
1814,9737
1809,9738
1812,9739
1850,9740
1937,9741
2038,9742
2113,9743
2192,9744
2187,9745
2161,9746
2091,9747
2037,9748
1899,9749
1812,9750
1842,9751
1823,9752
1805,9753
1779,9754
1751,9755
1713,9756
1712,9757
1675,9758
1620,9759
1599,9760
1625,9761
1635,9762
1729,9763
1816,9764
1847,9765
1898,9766
1895,9767
1928,9768
1965,9769
1931,9770
1906,9771
1890,9772
1824,9773
1890,9774
2002,9775
2027,9776
2052,9777
1945,9778
1894,9779
1804,9780
1743,9781
1681,9782
1636,9783
1652,9784
1818,9785
1924,9786
1935,9787
1860,9788
1816,9789
1830,9790
1811,9791
1827,9792
1830,9793
1863,9794
1856,9795
1886,9796
1966,9797
2080,9798
2149,9799
2113,9800
2014,9801
1951,9802
1848,9803
1813,9804
1876,9805
1921,9806
1891,9807
1894,9808
1928,9809
1912,9810
1850,9811
1825,9812
1735,9813
1611,9814
1609,9815
1601,9816
1619,9817
1665,9818
1715,9819
1702,9820
1777,9821
1783,9822
1799,9823
1832,9824
1824,9825
1848,9826
1881,9827
1887,9828
2070,9829
2251,9830
2289,9831
2281,9832
2152,9833
2026,9834
1898,9835
1778,9836
1719,9837
1658,9838
1572,9839
1625,9840
1714,9841
1753,9842
1800,9843
1793,9844
1812,9845
1820,9846
1841,9847
1967,9848
1964,9849
1913,9850
1865,9851
1823,9852
1756,9853
1706,9854
1839,9855
1990,9856
2055,9857
2087,9858
2025,9859
1961,9860
1926,9861
1901,9862
1816,9863
1750,9864
1753,9865
1728,9866
1723,9867
1754,9868
1756,9869
1750,9870
1774,9871
1746,9872
1745,9873
1757,9874
1760,9875
1768,9876
1769,9877
1768,9878
1784,9879
1871,9880
1930,9881
2012,9882
2057,9883
2150,9884
2210,9885
2282,9886
2279,9887
2169,9888
1970,9889
1745,9890
1608,9891
1531,9892
1573,9893
1694,9894
1743,9895
1755,9896
1830,9897
1802,9898
1708,9899
1675,9900
1672,9901
1692,9902
1680,9903
1763,9904
1825,9905
1862,9906
1907,9907
1902,9908
1982,9909
2013,9910
2058,9911
2034,9912
1956,9913
1885,9914
1866,9915
1863,9916
1920,9917
1927,9918
1906,9919
1811,9920
1772,9921
1727,9922
1733,9923
1719,9924
1748,9925
1785,9926
1775,9927
1836,9928
1844,9929
1842,9930
1914,9931
1983,9932
1935,9933
1909,9934
1896,9935
1871,9936
1781,9937
1775,9938
1695,9939
1684,9940
1685,9941
1757,9942
1876,9943
1912,9944
2067,9945
2063,9946
2052,9947
1987,9948
1936,9949
1853,9950
1804,9951
1776,9952
1713,9953
1650,9954
1671,9955
1730,9956
1827,9957
1851,9958
1886,9959
1840,9960
1855,9961
1808,9962
1877,9963
1963,9964
1977,9965
1972,9966
2016,9967
2104,9968
2099,9969
2084,9970
2053,9971
1974,9972
1872,9973
1794,9974
1720,9975
1704,9976
1716,9977
1741,9978
1814,9979
1927,9980
1970,9981
2032,9982
1992,9983
1903,9984
1919,9985
1928,9986
1874,9987
1790,9988
1714,9989
1640,9990
1608,9991
1636,9992
1632,9993
1682,9994
1678,9995
1719,9996
1714,9997
1767,9998
1808,9999
1833,10000
1861,10001
1912,10002
1872,10003
1852,10004
1873,10005
1878,10006
1865,10007
1831,10008
1852,10009
1845,10010
1826,10011
1799,10012
1864,10013
1963,10014
2008,10015
1986,10016
1953,10017
1920,10018
1884,10019
1848,10020
1823,10021
1816,10022
1848,10023
1914,10024
1929,10025
1971,10026
1930,10027
1919,10028
1982,10029
2012,10030
1953,10031
1853,10032
1879,10033
1990,10034
2079,10035
2096,10036
1953,10037
1842,10038
1828,10039
1885,10040
1894,10041
1865,10042
1855,10043
1851,10044
1843,10045
1862,10046
1825,10047
1835,10048
1819,10049
1772,10050
1754,10051
1766,10052
1691,10053
1713,10054
1659,10055
1655,10056
1671,10057
1701,10058
1743,10059
1823,10060
1869,10061
1915,10062
1892,10063
1990,10064
2027,10065
1950,10066
1875,10067
1791,10068
1769,10069
1759,10070
1744,10071
1692,10072
1701,10073
1681,10074
1724,10075
1738,10076
1779,10077
1788,10078
1851,10079
1881,10080
1868,10081
1919,10082
1927,10083
1922,10084
1962,10085
1958,10086
1925,10087
1880,10088
1831,10089
1782,10090
1781,10091
1793,10092
1784,10093
1801,10094
1794,10095
1811,10096
1850,10097
1926,10098
1905,10099
1910,10100
1951,10101
1953,10102
1930,10103
1937,10104
1985,10105
1954,10106
1952,10107
1936,10108
1896,10109
1896,10110
1917,10111
1920,10112
2030,10113
2096,10114
2126,10115
2106,10116
2104,10117
2002,10118
1949,10119
1883,10120
1883,10121
1910,10122
1887,10123
1949,10124
1987,10125
1911,10126
1857,10127
1839,10128
1805,10129
1756,10130
1699,10131
1626,10132
1563,10133
1588,10134
1611,10135
1660,10136
1677,10137
1760,10138
1787,10139
1810,10140
1849,10141
1870,10142
1934,10143
1997,10144
2001,10145
2068,10146
2002,10147
1982,10148
1954,10149
1875,10150
1851,10151
1856,10152
1806,10153
1731,10154
1745,10155
1759,10156
1779,10157
1799,10158
1763,10159
1765,10160
1778,10161
1784,10162
1813,10163
1809,10164
1790,10165
1864,10166
1880,10167
1909,10168
1904,10169
1867,10170
1834,10171
1853,10172
1850,10173
1839,10174
1860,10175
1872,10176
1927,10177
1895,10178
1913,10179
1912,10180
1940,10181
1926,10182
1913,10183
1912,10184
1918,10185
1949,10186
1933,10187
1951,10188
1909,10189
1856,10190
1913,10191
1897,10192
1852,10193
1857,10194
1860,10195
1841,10196
1883,10197
1827,10198
1811,10199
1856,10200
1883,10201
1860,10202
1967,10203
1998,10204
1983,10205
2042,10206
2128,10207
2193,10208
2176,10209
2066,10210
1951,10211
1840,10212
1751,10213
1692,10214
1617,10215
1589,10216
1584,10217
1630,10218
1665,10219
1717,10220
1799,10221
1888,10222
1921,10223
1927,10224
1927,10225
1896,10226
1847,10227
1815,10228
1820,10229
1777,10230
1790,10231
1793,10232
1804,10233
1822,10234
1839,10235
1811,10236
1828,10237
1814,10238
1837,10239
1852,10240
1892,10241
1958,10242
2058,10243
2063,10244
2094,10245
2096,10246
2073,10247
2011,10248
2005,10249
1946,10250
1850,10251
1814,10252
1787,10253
1784,10254
1761,10255
1802,10256
1837,10257
1934,10258
2027,10259
2085,10260
2071,10261
2060,10262
2009,10263
1968,10264
1917,10265
1964,10266
1931,10267
1921,10268
1900,10269
1858,10270
1841,10271
1807,10272
1738,10273
1714,10274
1724,10275
1695,10276
1696,10277
1718,10278
1719,10279
1754,10280
1824,10281
1854,10282
1902,10283
1871,10284
1915,10285
1880,10286
1861,10287
1859,10288
1838,10289
1863,10290
1835,10291
1818,10292
1824,10293
1811,10294
1875,10295
1875,10296
1878,10297
1924,10298
1920,10299
1933,10300
1975,10301
2042,10302
2123,10303
2198,10304
2190,10305
2144,10306
2069,10307
1948,10308
1838,10309
1821,10310
1808,10311
1771,10312
1756,10313
1693,10314
1698,10315
1727,10316
1885,10317
1999,10318
2058,10319
2149,10320
2073,10321
1954,10322
1864,10323
1768,10324
1737,10325
1683,10326
1692,10327
1711,10328
1753,10329
1752,10330
1837,10331
1879,10332
1880,10333
1914,10334
1998,10335
2033,10336
2018,10337
1980,10338
1928,10339
1891,10340
1891,10341
1892,10342
1909,10343
2008,10344
2100,10345
2227,10346
2221,10347
2224,10348
2175,10349
2075,10350
1953,10351
1798,10352
1744,10353
1692,10354
1679,10355
1751,10356
1850,10357
2022,10358
2120,10359
2087,10360
1962,10361
1841,10362
1740,10363
1686,10364
1734,10365
1769,10366
1810,10367
1837,10368
1828,10369
1799,10370
1774,10371
1793,10372
1760,10373
1750,10374
1739,10375
1712,10376
1714,10377
1736,10378
1774,10379
1819,10380
1922,10381
1951,10382
2010,10383
2035,10384
2147,10385
2155,10386
2148,10387
2089,10388
2039,10389
1928,10390
1914,10391
1809,10392
1731,10393
1631,10394
1741,10395
1845,10396
2003,10397
2409,10398
2736,10399
2689,10400
2498,10401
2291,10402
2057,10403
1796,10404
1595,10405
1486,10406
1464,10407
1490,10408
1604,10409
1636,10410
1704,10411
1695,10412
1719,10413
1741,10414
1785,10415
1842,10416
1824,10417
1743,10418
1683,10419
1661,10420
1694,10421
1715,10422
1787,10423
1854,10424
1909,10425
1911,10426
1944,10427
1979,10428
2004,10429
1969,10430
1960,10431
2044,10432
2084,10433
2085,10434
2030,10435
1987,10436
1937,10437
1927,10438
1859,10439
1837,10440
1777,10441
1795,10442
1888,10443
1907,10444
1958,10445
2011,10446
2044,10447
2047,10448
2020,10449
1939,10450
1908,10451
1815,10452
1733,10453
1655,10454
1649,10455
1705,10456
1716,10457
1782,10458
1820,10459
1939,10460
1949,10461
1990,10462
2015,10463
1977,10464
1978,10465
1959,10466
1956,10467
1917,10468
1869,10469
1933,10470
1980,10471
2056,10472
2066,10473
2068,10474
2170,10475
2179,10476
2175,10477
2088,10478
2010,10479
1892,10480
1767,10481
1724,10482
1751,10483
1773,10484
1791,10485
1789,10486
1865,10487
1922,10488
1894,10489
1839,10490
1775,10491
1816,10492
1859,10493
1880,10494
1881,10495
1872,10496
1875,10497
1910,10498
1864,10499
1862,10500
1835,10501
1859,10502
1847,10503
1851,10504
1902,10505
1919,10506
1942,10507
1951,10508
1954,10509
1895,10510
1885,10511
1821,10512
1772,10513
1753,10514
1779,10515
1806,10516
1829,10517
1841,10518
1830,10519
1788,10520
1742,10521
1740,10522
1764,10523
1840,10524
1904,10525
1925,10526
1876,10527
1875,10528
1846,10529
1873,10530
1858,10531
1866,10532
1844,10533
1816,10534
1812,10535
1793,10536
1851,10537
1849,10538
1880,10539
1930,10540
1986,10541
2038,10542
2081,10543
2114,10544
2165,10545
2109,10546
2038,10547
1974,10548
1923,10549
1960,10550
1933,10551
1842,10552
1739,10553
1706,10554
1768,10555
1886,10556
2056,10557
2134,10558
2173,10559
2115,10560
2111,10561
2015,10562
1985,10563
2071,10564
2107,10565
2108,10566
1991,10567
1871,10568
1790,10569
1696,10570
1626,10571
1644,10572
1722,10573
1712,10574
1762,10575
1719,10576
1688,10577
1671,10578
1686,10579
1703,10580
1824,10581
1900,10582
1887,10583
1975,10584
2053,10585
2042,10586
2088,10587
2096,10588
2001,10589
1917,10590
1850,10591
1753,10592
1768,10593
1878,10594
1887,10595
1816,10596
1850,10597
1871,10598
2006,10599
1975,10600
1911,10601
1872,10602
1856,10603
1780,10604
1739,10605
1759,10606
1754,10607
1759,10608
1808,10609
1867,10610
1883,10611
1960,10612
2016,10613
1991,10614
1992,10615
2020,10616
1969,10617
1951,10618
1852,10619
1830,10620
1802,10621
1807,10622
1813,10623
1831,10624
1896,10625
1990,10626
2040,10627
2100,10628
2123,10629
2053,10630
2027,10631
1974,10632
1957,10633
1987,10634
2024,10635
2039,10636
2005,10637
1999,10638
1942,10639
1939,10640
1861,10641
1788,10642
1760,10643
1825,10644
1839,10645
1871,10646
1980,10647
2063,10648
2059,10649
2060,10650
1990,10651
1853,10652
1719,10653
1625,10654
1577,10655
1668,10656
1751,10657
1800,10658
1719,10659
1701,10660
1695,10661
1716,10662
1731,10663
1756,10664
1769,10665
1765,10666
1808,10667
1842,10668
1823,10669
1879,10670
1880,10671
1863,10672
1858,10673
1848,10674
1852,10675
1842,10676
1853,10677
1821,10678
1830,10679
1861,10680
1876,10681
1896,10682
1941,10683
1899,10684
1900,10685
1847,10686
1839,10687
1827,10688
1876,10689
1854,10690
1821,10691
1842,10692
1885,10693
1854,10694
1856,10695
1860,10696
1857,10697
1890,10698
1902,10699
1938,10700
1950,10701
2022,10702
2032,10703
2015,10704
2028,10705
1993,10706
1943,10707
1848,10708
1819,10709
1776,10710
1678,10711
1663,10712
1663,10713
1723,10714
1768,10715
1716,10716
1815,10717
1853,10718
1916,10719
2026,10720
2135,10721
2175,10722
2135,10723
2096,10724
2056,10725
1960,10726
1850,10727
1837,10728
1791,10729
1812,10730
1809,10731
1814,10732
1825,10733
1807,10734
1807,10735
1895,10736
1927,10737
1969,10738
1978,10739
1976,10740
2031,10741
2164,10742
2182,10743
2156,10744
2040,10745
2010,10746
1910,10747
1880,10748
1927,10749
1950,10750
1948,10751
1998,10752
1960,10753
1943,10754
1843,10755
1805,10756
1739,10757
1739,10758
1726,10759
1703,10760
1754,10761
1750,10762
1831,10763
1916,10764
2011,10765
2100,10766
2111,10767
2077,10768
1991,10769
1911,10770
1864,10771
1825,10772
1776,10773
1735,10774
1709,10775
1741,10776
1762,10777
1767,10778
1776,10779
1826,10780
1907,10781
1952,10782
2011,10783
2021,10784
1994,10785
1951,10786
1906,10787
1884,10788
1837,10789
1863,10790
1879,10791
1875,10792
1918,10793
1892,10794
1845,10795
1806,10796
1795,10797
1823,10798
1786,10799
1825,10800
1867,10801
1872,10802
1937,10803
1982,10804
2125,10805
2164,10806
2208,10807
2219,10808
2126,10809
2028,10810
1965,10811
1952,10812
1935,10813
1914,10814
1859,10815
1798,10816
1855,10817
2046,10818
2110,10819
2064,10820
1995,10821
1967,10822
1947,10823
1885,10824
1819,10825
1685,10826
1641,10827
1573,10828
1575,10829
1741,10830
1962,10831
2182,10832
2171,10833
2162,10834
2134,10835
2115,10836
2005,10837
1889,10838
1784,10839
1709,10840
1743,10841
1769,10842
1776,10843
1851,10844
1910,10845
1930,10846
1970,10847
2029,10848
2007,10849
1917,10850
1900,10851
1825,10852
1758,10853
1671,10854
1608,10855
1608,10856
1581,10857
1621,10858
1680,10859
1707,10860
1821,10861
1959,10862
2025,10863
2059,10864
2051,10865
2023,10866
1942,10867
1914,10868
1854,10869
1789,10870
1823,10871
1887,10872
1983,10873
1993,10874
2029,10875
2030,10876
1976,10877
1895,10878
1831,10879
1776,10880
1740,10881
1792,10882
2039,10883
2332,10884
2541,10885
2568,10886
2458,10887
2297,10888
2097,10889
1942,10890
1805,10891
1731,10892
1596,10893
1519,10894
1547,10895
1747,10896
1897,10897
1963,10898
1918,10899
1831,10900
1791,10901
1726,10902
1686,10903
1670,10904
1706,10905
1868,10906
2019,10907
2208,10908
2145,10909
2102,10910
2187,10911
2147,10912
2062,10913
1970,10914
1899,10915
1910,10916
2044,10917
2243,10918
2232,10919
2116,10920
1999,10921
1834,10922
1780,10923
1755,10924
1673,10925
1541,10926
1486,10927
1472,10928
1515,10929
1592,10930
1657,10931
1715,10932
1776,10933
1811,10934
1804,10935
1845,10936
1840,10937
1818,10938
1833,10939
1809,10940
1835,10941
1899,10942
2001,10943
2088,10944
2199,10945
2161,10946
2184,10947
2197,10948
2082,10949
1937,10950
1781,10951
1667,10952
1619,10953
1607,10954
1715,10955
1818,10956
1822,10957
1881,10958
1924,10959
2082,10960
2166,10961
2179,10962
2106,10963
2039,10964
1950,10965
1847,10966
1754,10967
1699,10968
1609,10969
1608,10970
1732,10971
1892,10972
1959,10973
2049,10974
2111,10975
2177,10976
2180,10977
2167,10978
2024,10979
1892,10980
1832,10981
1775,10982
1801,10983
1712,10984
1733,10985
1834,10986
1919,10987
1979,10988
1962,10989
1966,10990
2009,10991
2062,10992
2016,10993
1968,10994
1865,10995
1830,10996
1784,10997
1754,10998
1783,10999
1813,11000
1847,11001
1896,11002
1919,11003
1952,11004
1997,11005
2045,11006
2044,11007
2040,11008
1901,11009
1816,11010
1781,11011
1803,11012
1804,11013
1802,11014
1778,11015
1776,11016
1772,11017
1744,11018
1730,11019
1694,11020
1653,11021
1658,11022
1781,11023
1839,11024
1862,11025
1850,11026
1818,11027
1759,11028
1762,11029
1792,11030
1792,11031
1772,11032
1762,11033
1788,11034
1853,11035
1899,11036
1987,11037
2107,11038
2170,11039
2142,11040
2095,11041
2048,11042
2007,11043
1933,11044
1985,11045
2091,11046
2185,11047
2157,11048
2173,11049
2111,11050
2032,11051
1932,11052
1900,11053
1794,11054
1813,11055
1824,11056
1877,11057
1874,11058
1885,11059
1826,11060
1723,11061
1650,11062
1652,11063
1658,11064
1771,11065
1824,11066
1806,11067
1792,11068
1701,11069
1711,11070
1760,11071
1891,11072
1998,11073
2020,11074
2022,11075
1993,11076
1997,11077
2030,11078
2050,11079
2060,11080
2091,11081
2096,11082
2140,11083
2232,11084
2163,11085
2007,11086
1799,11087
1695,11088
1673,11089
1697,11090
1726,11091
1658,11092
1646,11093
1618,11094
1632,11095
1722,11096
1791,11097
1821,11098
1875,11099
1883,11100
1869,11101
1864,11102
1872,11103
1861,11104
1871,11105
1864,11106
1859,11107
1841,11108
1778,11109
1809,11110
1827,11111
1825,11112
1798,11113
1784,11114
1773,11115
1807,11116
1784,11117
1805,11118
1847,11119
1895,11120
2008,11121
2013,11122
2093,11123
2109,11124
2138,11125
2127,11126
2092,11127
2013,11128
1964,11129
1922,11130
1887,11131
1835,11132
1771,11133
1734,11134
1792,11135
1849,11136
1908,11137
1975,11138
1944,11139
1869,11140
1836,11141
1839,11142
1838,11143
1858,11144
2004,11145
2038,11146
1966,11147
1875,11148
1748,11149
1714,11150
1685,11151
1726,11152
1708,11153
1763,11154
1965,11155
2089,11156
2202,11157
2238,11158
2232,11159
2081,11160
1859,11161
1760,11162
1835,11163
1837,11164
1808,11165
1774,11166
1720,11167
1726,11168
1738,11169
1749,11170
1699,11171
1840,11172
1930,11173
1979,11174
1931,11175
1857,11176
1797,11177
1760,11178
1735,11179
1680,11180
1738,11181
1788,11182
1876,11183
1870,11184
1846,11185
1851,11186
1874,11187
1939,11188
1874,11189
1818,11190
1795,11191
1806,11192
1783,11193
1786,11194
1876,11195
1878,11196
1879,11197
1888,11198
1872,11199
1854,11200
1915,11201
1880,11202
1874,11203
1857,11204
1839,11205
1838,11206
1927,11207
1993,11208
2018,11209
2071,11210
2068,11211
2042,11212
1953,11213
1897,11214
2015,11215
2171,11216
2209,11217
2067,11218
2033,11219
1941,11220
1973,11221
2181,11222
2299,11223
2283,11224
2156,11225
2003,11226
1812,11227
1592,11228
1431,11229
1347,11230
1322,11231
1391,11232
1449,11233
1544,11234
1599,11235
1694,11236
1755,11237
1849,11238
1887,11239
1961,11240
1970,11241
2020,11242
2111,11243
2054,11244
1986,11245
1891,11246
1909,11247
1967,11248
2128,11249
2065,11250
1837,11251
1645,11252
1610,11253
1610,11254
1663,11255
1743,11256
1790,11257
1784,11258
1718,11259
1766,11260
1864,11261
1887,11262
2021,11263
2078,11264
2039,11265
1947,11266
1871,11267
1835,11268
1816,11269
1759,11270
1715,11271
1732,11272
1813,11273
1837,11274
1899,11275
1931,11276
1858,11277
1880,11278
1864,11279
1852,11280
1832,11281
1827,11282
1907,11283
1992,11284
2038,11285
2047,11286
1927,11287
1879,11288
1780,11289
1778,11290
1739,11291
1644,11292
1612,11293
1585,11294
1570,11295
1588,11296
1677,11297
1722,11298
1826,11299
1884,11300
1938,11301
2022,11302
2017,11303
2071,11304
2105,11305
2139,11306
2182,11307
2147,11308
2095,11309
2004,11310
1973,11311
1921,11312
1939,11313
1844,11314
1784,11315
1781,11316
1856,11317
1881,11318
2004,11319
2023,11320
2027,11321
1983,11322
1957,11323
1943,11324
1835,11325
1775,11326
1725,11327
1794,11328
1896,11329
2038,11330
2038,11331
2057,11332
1999,11333
1978,11334
1915,11335
1782,11336
1715,11337
1653,11338
1632,11339
1693,11340
1771,11341
1836,11342
1893,11343
1935,11344
1897,11345
1882,11346
1819,11347
1775,11348
1743,11349
1721,11350
1699,11351
1725,11352
1822,11353
1846,11354
1825,11355
1819,11356
1844,11357
1972,11358
2019,11359
2038,11360
2151,11361
2182,11362
2083,11363
2042,11364
1940,11365
1880,11366
1795,11367
1787,11368
1730,11369
1746,11370
1748,11371
1737,11372
1783,11373
1781,11374
1812,11375
1885,11376
2009,11377
2067,11378
2080,11379
2098,11380
2098,11381
2042,11382
1991,11383
2000,11384
2026,11385
1991,11386
2055,11387
2039,11388
1902,11389
1771,11390
1718,11391
1623,11392
1512,11393
1488,11394
1580,11395
1633,11396
1755,11397
1832,11398
1878,11399
1976,11400
2094,11401
2069,11402
2015,11403
1923,11404
1911,11405
1864,11406
1854,11407
1819,11408
1781,11409
1760,11410
1743,11411
1735,11412
1725,11413
1723,11414
1744,11415
1764,11416
1767,11417
1850,11418
2038,11419
2067,11420
2041,11421
1975,11422
1933,11423
1870,11424
1845,11425
1818,11426
1787,11427
1811,11428
1809,11429
1793,11430
1782,11431
1808,11432
1885,11433
1995,11434
2071,11435
2064,11436
2015,11437
1981,11438
1980,11439
1950,11440
1959,11441
1989,11442
1934,11443
1931,11444
1867,11445
1856,11446
1817,11447
1832,11448
1819,11449
1854,11450
1932,11451
1988,11452
2123,11453
2088,11454
2022,11455
1882,11456
1777,11457
1676,11458
1667,11459
1847,11460
1936,11461
2071,11462
2037,11463
1956,11464
1954,11465
1976,11466
1891,11467
1832,11468
1800,11469
1711,11470
1717,11471
1717,11472
1698,11473
1737,11474
1715,11475
1783,11476
1812,11477
1852,11478
1854,11479
1888,11480
1964,11481
1973,11482
1970,11483
1966,11484
1928,11485
1851,11486
1814,11487
1812,11488
1782,11489
1777,11490
1818,11491
1890,11492
2068,11493
2130,11494
2093,11495
2020,11496
1957,11497
1831,11498
1756,11499
1749,11500
1784,11501
1834,11502
1831,11503
1876,11504
1905,11505
1912,11506
1921,11507
1941,11508
2026,11509
2018,11510
1982,11511
1892,11512
1865,11513
1769,11514
1731,11515
1673,11516
1687,11517
1787,11518
1829,11519
1943,11520
2054,11521
2077,11522
2202,11523
2266,11524
2243,11525
2169,11526
2076,11527
1923,11528
1907,11529
2049,11530
2136,11531
2035,11532
1962,11533
1883,11534
1850,11535
1806,11536
1779,11537
1710,11538
1650,11539
1637,11540
1664,11541
1678,11542
1738,11543
1824,11544
1922,11545
2046,11546
2047,11547
2081,11548
1977,11549
1950,11550
1955,11551
2136,11552
2143,11553
2216,11554
2329,11555
2308,11556
2213,11557
2053,11558
1914,11559
1823,11560
1760,11561
1651,11562
1556,11563
1526,11564
1466,11565
1508,11566
1540,11567
1575,11568
1595,11569
1675,11570
1699,11571
1696,11572
1690,11573
1708,11574
1730,11575
1800,11576
1810,11577
1855,11578
1889,11579
1948,11580
2016,11581
2094,11582
2229,11583
2202,11584
2173,11585
2089,11586
2061,11587
1980,11588
2015,11589
1931,11590
1832,11591
1804,11592
1753,11593
1846,11594
1957,11595
1969,11596
1979,11597
2093,11598
2097,11599
2109,11600
2114,11601
2016,11602
1951,11603
1899,11604
1832,11605
1760,11606
1784,11607
1792,11608
1746,11609
1802,11610
1820,11611
1838,11612
1775,11613
1772,11614
1870,11615
1931,11616
2017,11617
2136,11618
2255,11619
2265,11620
2143,11621
1983,11622
1818,11623
1702,11624
1572,11625
1469,11626
1476,11627
1540,11628
1607,11629
1650,11630
1810,11631
1962,11632
1970,11633
1897,11634
1824,11635
1783,11636
1721,11637
1734,11638
1740,11639
1748,11640
1776,11641
1858,11642
1884,11643
1973,11644
2006,11645
2008,11646
1963,11647
1931,11648
1890,11649
1909,11650
1928,11651
1927,11652
1902,11653
1905,11654
1884,11655
1936,11656
1908,11657
1846,11658
1808,11659
1836,11660
1843,11661
1892,11662
1918,11663
1907,11664
1879,11665
1851,11666
1811,11667
1769,11668
1771,11669
1779,11670
1791,11671
1810,11672
1882,11673
2059,11674
2285,11675
2363,11676
2326,11677
2183,11678
1987,11679
1860,11680
1732,11681
1619,11682
1552,11683
1563,11684
1654,11685
1755,11686
1803,11687
1865,11688
2010,11689
2173,11690
2404,11691
2498,11692
2385,11693
2225,11694
2055,11695
1935,11696
1766,11697
1589,11698
1467,11699
1460,11700
1477,11701
1586,11702
1715,11703
1781,11704
1814,11705
1878,11706
1976,11707
2008,11708
1933,11709
1863,11710
1816,11711
1760,11712
1752,11713
1770,11714
1822,11715
1857,11716
1879,11717
1904,11718
1901,11719
1838,11720
1847,11721
1780,11722
1733,11723
1743,11724
1774,11725
1791,11726
1810,11727
1861,11728
1855,11729
1865,11730
1837,11731
1864,11732
1884,11733
1895,11734
1860,11735
1889,11736
1920,11737
1980,11738
1956,11739
1926,11740
1954,11741
1969,11742
2007,11743
2079,11744
2147,11745
2156,11746
2132,11747
2047,11748
1903,11749
1756,11750
1688,11751
1704,11752
1738,11753
1796,11754
1792,11755
1832,11756
1880,11757
1887,11758
1890,11759
1946,11760
2007,11761
2041,11762
1950,11763
1916,11764
1907,11765
1967,11766
1968,11767
1963,11768
1912,11769
1883,11770
1913,11771
1983,11772
1981,11773
1943,11774
1858,11775
1786,11776
1762,11777
1722,11778
1721,11779
1750,11780
1824,11781
1916,11782
1976,11783
1992,11784
1955,11785
2012,11786
2059,11787
2118,11788
2104,11789
1997,11790
1904,11791
1847,11792
1857,11793
1838,11794
1773,11795
1733,11796
1687,11797
1625,11798
1686,11799
1747,11800
1749,11801
1816,11802
1879,11803
2000,11804
2009,11805
1962,11806
1939,11807
1908,11808
1895,11809
1890,11810
1825,11811
1758,11812
1697,11813
1703,11814
1734,11815
1788,11816
1861,11817
1916,11818
1908,11819
1948,11820
1949,11821
1928,11822
1938,11823
1946,11824
1954,11825
2015,11826
2050,11827
2016,11828
2058,11829
2176,11830
2204,11831
2154,11832
2012,11833
1899,11834
1816,11835
1781,11836
1771,11837
1717,11838
1787,11839
1763,11840
1799,11841
1826,11842
1843,11843
1856,11844
1952,11845
2013,11846
1956,11847
1929,11848
1979,11849
1958,11850
1898,11851
1842,11852
1806,11853
1811,11854
1800,11855
1706,11856
1713,11857
1740,11858
1760,11859
1804,11860
1873,11861
1892,11862
1908,11863
1960,11864
2011,11865
2020,11866
2047,11867
1988,11868
1897,11869
1839,11870
1757,11871
1723,11872
1704,11873
1742,11874
1790,11875
1911,11876
2027,11877
2011,11878
1975,11879
1969,11880
2073,11881
2219,11882
2220,11883
2153,11884
2003,11885
1877,11886
1806,11887
1714,11888
1603,11889
1627,11890
1636,11891
1767,11892
1899,11893
1991,11894
1950,11895
1898,11896
1865,11897
1831,11898
1791,11899
1787,11900
1791,11901
1763,11902
1811,11903
1860,11904
1924,11905
1983,11906
2034,11907
1995,11908
1944,11909
1891,11910
1861,11911
1902,11912
1874,11913
1850,11914
1755,11915
1814,11916
1919,11917
2059,11918
2108,11919
2098,11920
2089,11921
2041,11922
2026,11923
2047,11924
1980,11925
1894,11926
1757,11927
1744,11928
1644,11929
1656,11930
1704,11931
1710,11932
1686,11933
1742,11934
1820,11935
1982,11936
2119,11937
2169,11938
2111,11939
2053,11940
1961,11941
1940,11942
1909,11943
1811,11944
1756,11945
1824,11946
1921,11947
1947,11948
1960,11949
1906,11950
1810,11951
1740,11952
1720,11953
1697,11954
1719,11955
1722,11956
1735,11957
1832,11958
2044,11959
2238,11960
2307,11961
2323,11962
2244,11963
2079,11964
1971,11965
1891,11966
1830,11967
1781,11968
1717,11969
1699,11970
1730,11971
1747,11972
1711,11973
1708,11974
1766,11975
1872,11976
1988,11977
2053,11978
2084,11979
2099,11980
2038,11981
2071,11982
2024,11983
1947,11984
1820,11985
1784,11986
1888,11987
2009,11988
2004,11989
1975,11990
1951,11991
1865,11992
1855,11993
1730,11994
1694,11995
1711,11996
1692,11997
1711,11998
1700,11999
1745,12000
1780,12001
1831,12002
1918,12003
1915,12004
1943,12005
1971,12006
1959,12007
1919,12008
1913,12009
1903,12010
1848,12011
1872,12012
1900,12013
1900,12014
1895,12015
1887,12016
1845,12017
1807,12018
1847,12019
1835,12020
1880,12021
1889,12022
1904,12023
1925,12024
1973,12025
2027,12026
2017,12027
2031,12028
1984,12029
1912,12030
1869,12031
1824,12032
1793,12033
1919,12034
2013,12035
2111,12036
2111,12037
2056,12038
1946,12039
1923,12040
1906,12041
1830,12042
1853,12043
1782,12044
1842,12045
1869,12046
1876,12047
1867,12048
1860,12049
1845,12050
1879,12051
1856,12052
1807,12053
1809,12054
1886,12055
1871,12056
1879,12057
1854,12058
1886,12059
1851,12060
1875,12061
1822,12062
1864,12063
1886,12064
1906,12065
1921,12066
2014,12067
2082,12068
2033,12069
1959,12070
1948,12071
1874,12072
1825,12073
1824,12074
1830,12075
1776,12076
1790,12077
1775,12078
1722,12079
1719,12080
1786,12081
1805,12082
1887,12083
1905,12084
1961,12085
1925,12086
1963,12087
1937,12088
1974,12089
1951,12090
1924,12091
1896,12092
1898,12093
1884,12094
1900,12095
1895,12096
1951,12097
1907,12098
1979,12099
2023,12100
2070,12101
2118,12102
2064,12103
2011,12104
1948,12105
1928,12106
1905,12107
1923,12108
1832,12109
1794,12110
1744,12111
1774,12112
1777,12113
1825,12114
1814,12115
1863,12116
1876,12117
1914,12118
1918,12119
1948,12120
1955,12121
1954,12122
1972,12123
1950,12124
1962,12125
1945,12126
1948,12127
1953,12128
1946,12129
1882,12130
1867,12131
1863,12132
1871,12133
1895,12134
1913,12135
1937,12136
1923,12137
1984,12138
1970,12139
2001,12140
2017,12141
2048,12142
2055,12143
2050,12144
2019,12145
2005,12146
1945,12147
1923,12148
1900,12149
1861,12150
1775,12151
1825,12152
1830,12153
1825,12154
1846,12155
1860,12156
1889,12157
1961,12158
1986,12159
1936,12160
1949,12161
1959,12162
2027,12163
2022,12164
1994,12165
1935,12166
1901,12167
1854,12168
1851,12169
1825,12170
1780,12171
1798,12172
1837,12173
1925,12174
1953,12175
1975,12176
1946,12177
1934,12178
1919,12179
1913,12180
1961,12181
2019,12182
1993,12183
1979,12184
1968,12185
1963,12186
1942,12187
1916,12188
1940,12189
1915,12190
1942,12191
1916,12192
1906,12193
1856,12194
1830,12195
1806,12196
1804,12197
1872,12198
1894,12199
1975,12200
2063,12201
2094,12202
2061,12203
2047,12204
2047,12205
2016,12206
2000,12207
1950,12208
1877,12209
1848,12210
1840,12211
1832,12212
1849,12213
1789,12214
1815,12215
1852,12216
1835,12217
1899,12218
1975,12219
2070,12220
2079,12221
2101,12222
2112,12223
2105,12224
2035,12225
1974,12226
1924,12227
1847,12228
1736,12229
1729,12230
1771,12231
1842,12232
1839,12233
1920,12234
2025,12235
2111,12236
2095,12237
2119,12238
2135,12239
2081,12240
2017,12241
1933,12242
1851,12243
1826,12244
1733,12245
1765,12246
1841,12247
1872,12248
1871,12249
1831,12250
1893,12251
1908,12252
1884,12253
1909,12254
1899,12255
1889,12256
1951,12257
2009,12258
1995,12259
2017,12260
2024,12261
2032,12262
1962,12263
1919,12264
1903,12265
1982,12266
2119,12267
2180,12268
2187,12269
2169,12270
2083,12271
1983,12272
1845,12273
1808,12274
1786,12275
1803,12276
1861,12277
1871,12278
1865,12279
1864,12280
1813,12281
1823,12282
1840,12283
1827,12284
1860,12285
1882,12286
1941,12287
1972,12288
1935,12289
1926,12290
1899,12291
1853,12292
1858,12293
1842,12294
1888,12295
1854,12296
1896,12297
1952,12298
1970,12299
2016,12300
2064,12301
2113,12302
2145,12303
2137,12304
2085,12305
1973,12306
1943,12307
1864,12308
1838,12309
1793,12310
1778,12311
1799,12312
1803,12313
1786,12314
1846,12315
1894,12316
2016,12317
2205,12318
2259,12319
2223,12320
2174,12321
2084,12322
1958,12323
2005,12324
1962,12325
1929,12326
1837,12327
1782,12328
1858,12329
1907,12330
1947,12331
1991,12332
1980,12333
2014,12334
1993,12335
2090,12336
2085,12337
2031,12338
1995,12339
2010,12340
1987,12341
1952,12342
1872,12343
1743,12344
1703,12345
1679,12346
1697,12347
1717,12348
1777,12349
1807,12350
1857,12351
1923,12352
1990,12353
2020,12354
2075,12355
2059,12356
2067,12357
2033,12358
2020,12359
2034,12360
2012,12361
1969,12362
1919,12363
1865,12364
1872,12365
1907,12366
1944,12367
1907,12368
1950,12369
1929,12370
1945,12371
1897,12372
1898,12373
1850,12374
1864,12375
1900,12376
1960,12377
1962,12378
1955,12379
2013,12380
2080,12381
2094,12382
2091,12383
2055,12384
2071,12385
2073,12386
2072,12387
2066,12388
1982,12389
1890,12390
1898,12391
1830,12392
1848,12393
1841,12394
1831,12395
1813,12396
1850,12397
1864,12398
1932,12399
1958,12400
2010,12401
2096,12402
2113,12403
2103,12404
2042,12405
2024,12406
1986,12407
1996,12408
2009,12409
1995,12410
1970,12411
2056,12412
2048,12413
2021,12414
1918,12415
1827,12416
1804,12417
1857,12418
1945,12419
2007,12420
1976,12421
1992,12422
2018,12423
2048,12424
2054,12425
2036,12426
2007,12427
2020,12428
2071,12429
2116,12430
2088,12431
2057,12432
1980,12433
1934,12434
1877,12435
1827,12436
1796,12437
1849,12438
1947,12439
1997,12440
2066,12441
2048,12442
2039,12443
1966,12444
1970,12445
1913,12446
1878,12447
1802,12448
1796,12449
1796,12450
1851,12451
1846,12452
