1891,2625
1934,2626
1933,2627
1953,2628
1967,2629
1938,2630
1953,2631
1942,2632
1987,2633
1963,2634
1971,2635
1938,2636
1924,2637
1898,2638
1917,2639
1913,2640
1889,2641
1889,2642
1907,2643
1895,2644
1909,2645
1946,2646
1936,2647
1943,2648
1942,2649
1960,2650
1968,2651
1977,2652
1975,2653
1961,2654
1949,2655
1961,2656
1934,2657
1966,2658
1947,2659
1934,2660
1909,2661
1906,2662
1919,2663
1918,2664
1927,2665
1907,2666
1956,2667
1955,2668
1960,2669
1960,2670
1984,2671
1954,2672
1951,2673
1935,2674
1942,2675
1921,2676
1908,2677
1895,2678
1887,2679
1903,2680
1911,2681
1921,2682
1925,2683
1885,2684
1916,2685
1934,2686
1943,2687
1957,2688
1984,2689
1957,2690
1966,2691
1991,2692
1944,2693
1958,2694
1938,2695
1935,2696
1913,2697
1908,2698
1928,2699
1915,2700
1924,2701
1928,2702
1952,2703
1949,2704
1946,2705
1974,2706
1955,2707
1962,2708
1960,2709
1971,2710
1980,2711
1963,2712
1956,2713
1937,2714
1962,2715
1956,2716
1948,2717
1928,2718
1898,2719
1915,2720
1888,2721
1900,2722
1901,2723
1928,2724
1934,2725
1936,2726
1943,2727
1932,2728
1936,2729
1929,2730
1980,2731
1974,2732
1942,2733
1939,2734
1911,2735
1942,2736
1929,2737
1921,2738
1911,2739
1880,2740
1903,2741
1921,2742
1901,2743
1922,2744
1938,2745
1948,2746
1954,2747
1978,2748
1959,2749
1956,2750
1978,2751
1967,2752
1976,2753
1952,2754
1941,2755
1966,2756
1932,2757
1944,2758
1933,2759
1944,2760
1922,2761
1934,2762
1886,2763
1923,2764
1935,2765
1937,2766
1953,2767
1915,2768
1944,2769
1985,2770
1951,2771
1987,2772
1981,2773
1973,2774
1952,2775
1939,2776
1907,2777
1925,2778
1924,2779
1918,2780
1935,2781
1924,2782
1934,2783
1939,2784
1921,2785
1949,2786
1939,2787
1952,2788
1967,2789
1980,2790
1982,2791
1977,2792
1976,2793
1974,2794
1958,2795
1929,2796
1934,2797
1892,2798
1884,2799
1904,2800
1896,2801
1901,2802
1898,2803
1902,2804
1944,2805
1934,2806
1914,2807
1915,2808
1957,2809
1947,2810
1982,2811
1973,2812
1973,2813
1953,2814
1968,2815
1944,2816
1944,2817
1947,2818
1883,2819
1908,2820
1901,2821
1907,2822
1923,2823
1915,2824
1928,2825
1939,2826
1937,2827
1930,2828
1955,2829
1998,2830
1984,2831
1971,2832
1971,2833
1964,2834
1965,2835
1906,2836
1929,2837
1932,2838
1931,2839
1900,2840
1930,2841
1922,2842
1937,2843
1934,2844
1955,2845
1929,2846
1967,2847
1941,2848
1976,2849
1965,2850
1983,2851
1989,2852
1968,2853
1971,2854
1938,2855
1917,2856
1915,2857
1904,2858
1946,2859
1919,2860
1927,2861
1912,2862
1920,2863
1924,2864
1940,2865
1940,2866
1914,2867
1942,2868
1961,2869
1967,2870
1983,2871
1931,2872
1962,2873
1942,2874
1952,2875
1958,2876
1936,2877
1912,2878
1930,2879
1920,2880
1916,2881
1928,2882
1918,2883
1918,2884
1924,2885
1906,2886
1943,2887
1953,2888
1959,2889
1972,2890
1936,2891
1966,2892
1976,2893
1955,2894
1939,2895
1908,2896
1948,2897
1945,2898
1943,2899
1913,2900
1925,2901
1905,2902
1923,2903
1928,2904
1933,2905
1956,2906
1928,2907
1950,2908
1973,2909
1958,2910
2009,2911
1955,2912
1984,2913
1999,2914
1975,2915
1982,2916
1956,2917
1945,2918
1925,2919
1955,2920
1922,2921
1904,2922
1920,2923
1924,2924
1924,2925
1927,2926
1939,2927
1965,2928
1944,2929
1959,2930
1981,2931
1979,2932
1974,2933
1962,2934
1936,2935
1956,2936
1907,2937
1910,2938
1896,2939
1894,2940
1904,2941
1913,2942
1914,2943
1923,2944
1944,2945
1950,2946
1951,2947
1979,2948
1962,2949
1996,2950
1990,2951
1977,2952
1992,2953
1942,2954
1959,2955
1942,2956
1933,2957
1897,2958
1909,2959
1927,2960
1909,2961
1907,2962
1884,2963
1927,2964
1926,2965
1942,2966
1930,2967
1922,2968
1955,2969
1941,2970
1962,2971
1979,2972
1957,2973
1951,2974
1953,2975
1951,2976
1942,2977
1927,2978
1940,2979
1932,2980
1920,2981
1911,2982
1916,2983
1948,2984
1898,2985
1949,2986
1951,2987
1943,2988
1982,2989
1955,2990
1997,2991
1962,2992
1962,2993
1930,2994
1935,2995
1970,2996
1944,2997
1936,2998
1920,2999
1925,3000
1879,3001
1919,3002
1936,3003
1935,3004
1946,3005
1911,3006
1913,3007
1962,3008
1955,3009
1956,3010
1974,3011
1961,3012
1982,3013
1933,3014
1936,3015
1928,3016
1920,3017
1935,3018
1937,3019
1956,3020
1926,3021
1929,3022
1917,3023
1923,3024
1903,3025
1941,3026
1965,3027
1947,3028
1969,3029
1971,3030
1973,3031
1988,3032
1964,3033
1949,3034
1952,3035
1915,3036
1944,3037
1935,3038
1916,3039
1913,3040
1934,3041
1920,3042
1920,3043
1920,3044
1921,3045
1924,3046
1952,3047
1919,3048
1934,3049
1936,3050
1968,3051
1965,3052
1980,3053
1948,3054
1957,3055
1935,3056
1939,3057
1953,3058
1921,3059
1947,3060
1920,3061
1922,3062
1886,3063
1939,3064
1918,3065
1942,3066
1956,3067
1983,3068
1972,3069
1972,3070
1941,3071
1960,3072
1974,3073
1935,3074
1981,3075
1951,3076
1924,3077
1933,3078
1897,3079
1905,3080
1928,3081
1928,3082
1913,3083
1920,3084
1923,3085
1887,3086
1916,3087
1964,3088
1962,3089
1946,3090
1975,3091
1977,3092
1967,3093
1967,3094
1932,3095
1940,3096
1943,3097
1924,3098
1911,3099
1931,3100
1904,3101
1932,3102
1911,3103
1926,3104
1932,3105
1953,3106
1957,3107
1954,3108
1942,3109
1986,3110
1987,3111
1975,3112
1946,3113
1974,3114
1949,3115
1927,3116
1923,3117
1912,3118
1903,3119
1875,3120
1899,3121
1895,3122
1908,3123
1916,3124
1937,3125
1954,3126
1956,3127
1975,3128
1990,3129
1980,3130
1973,3131
1979,3132
1961,3133
1951,3134
1920,3135
1935,3136
1914,3137
1943,3138
1917,3139
1912,3140
1934,3141
1916,3142
1928,3143
1933,3144
1944,3145
1919,3146
1944,3147
1958,3148
1966,3149
1973,3150
1981,3151
1964,3152
1990,3153
1945,3154
1962,3155
1944,3156
1941,3157
1920,3158
1921,3159
1923,3160
1926,3161
1922,3162
1911,3163
1944,3164
1929,3165
1957,3166
1959,3167
1965,3168
1960,3169
1975,3170
1984,3171
1964,3172
1981,3173
1962,3174
1941,3175
1950,3176
1933,3177
1927,3178
1890,3179
1903,3180
1908,3181
1924,3182
1922,3183
1909,3184
1933,3185
1945,3186
1952,3187
1964,3188
1963,3189
1961,3190
1961,3191
1946,3192
1976,3193
1953,3194
1955,3195
1936,3196
1923,3197
1931,3198
1935,3199
1934,3200
1935,3201
1931,3202
1941,3203
1941,3204
1924,3205
1954,3206
1953,3207
1963,3208
1975,3209
1953,3210
1980,3211
1974,3212
1958,3213
1972,3214
1990,3215
1961,3216
1920,3217
1923,3218
1944,3219
1929,3220
1899,3221
1911,3222
1918,3223
1898,3224
1921,3225
1935,3226
1951,3227
1948,3228
1961,3229
1952,3230
1969,3231
1985,3232
1999,3233
1957,3234
1961,3235
1930,3236
1930,3237
1955,3238
1924,3239
1931,3240
1918,3241
1927,3242
1900,3243
1923,3244
1926,3245
1915,3246
1968,3247
1988,3248
1962,3249
1922,3250
1983,3251
1967,3252
1955,3253
1938,3254
1948,3255
1927,3256
1934,3257
1912,3258
1912,3259
1921,3260
1903,3261
1911,3262
1924,3263
1914,3264
1938,3265
1958,3266
1960,3267
1971,3268
1989,3269
1988,3270
2004,3271
1993,3272
1957,3273
1941,3274
1923,3275
1928,3276
1903,3277
1932,3278
1930,3279
1948,3280
1933,3281
1911,3282
1916,3283
1898,3284
1951,3285
1959,3286
1971,3287
1971,3288
1960,3289
1995,3290
1977,3291
1988,3292
1962,3293
1967,3294
1951,3295
1939,3296
1928,3297
1923,3298
1902,3299
1913,3300
1930,3301
1924,3302
1921,3303
1922,3304
1923,3305
1928,3306
1967,3307
1978,3308
1990,3309
1994,3310
1998,3311
1966,3312
1961,3313
1958,3314
1963,3315
1951,3316
1921,3317
1940,3318
1927,3319
1943,3320
1891,3321
1933,3322
1926,3323
1938,3324
1923,3325
1945,3326
1950,3327
1951,3328
1968,3329
1973,3330
1984,3331
1976,3332
1972,3333
1976,3334
1956,3335
1949,3336
1930,3337
1912,3338
1917,3339
1931,3340
1934,3341
1927,3342
1935,3343
1944,3344
1924,3345
1968,3346
1969,3347
1964,3348
1990,3349
2011,3350
1988,3351
1989,3352
1970,3353
1982,3354
1964,3355
1953,3356
1939,3357
1931,3358
1938,3359
1940,3360
1918,3361
1914,3362
1919,3363
1896,3364
1912,3365
1929,3366
1965,3367
1959,3368
1947,3369
1971,3370
1956,3371
1993,3372
1968,3373
1967,3374
1968,3375
1961,3376
1932,3377
1927,3378
1928,3379
1918,3380
1915,3381
1925,3382
1901,3383
1919,3384
1949,3385
1961,3386
1978,3387
1982,3388
1993,3389
1999,3390
1989,3391
1952,3392
1940,3393
1966,3394
1938,3395
1945,3396
1896,3397
1923,3398
1934,3399
1925,3400
1924,3401
1912,3402
1915,3403
1924,3404
1944,3405
1943,3406
1956,3407
1928,3408
1970,3409
1961,3410
1974,3411
1993,3412
1993,3413
1974,3414
1980,3415
1961,3416
1937,3417
1975,3418
1963,3419
1936,3420
1926,3421
1910,3422
1904,3423
1919,3424
1943,3425
1919,3426
1963,3427
1956,3428
1937,3429
1973,3430
1977,3431
1970,3432
1977,3433
1972,3434
1970,3435
1921,3436
1936,3437
1896,3438
1940,3439
1924,3440
1915,3441
1943,3442
1887,3443
1898,3444
1906,3445
1973,3446
1927,3447
1964,3448
1972,3449
1988,3450
1998,3451
1954,3452
1973,3453
1966,3454
1932,3455
1935,3456
1901,3457
1948,3458
1904,3459
1940,3460
1960,3461
1933,3462
1911,3463
1924,3464
1937,3465
1981,3466
1970,3467
1961,3468
1981,3469
2010,3470
1965,3471
1979,3472
1994,3473
1966,3474
1951,3475
1940,3476
1944,3477
1941,3478
1941,3479
1922,3480
1912,3481
1925,3482
1946,3483
1931,3484
1898,3485
1948,3486
1936,3487
1941,3488
1941,3489
1977,3490
1970,3491
1976,3492
1992,3493
1998,3494
1934,3495
1957,3496
1920,3497
1947,3498
1927,3499
1925,3500
1912,3501
1921,3502
1923,3503
1923,3504
1934,3505
1936,3506
1940,3507
1934,3508
1972,3509
1985,3510
2000,3511
1976,3512
1998,3513
1939,3514
1961,3515
1926,3516
1907,3517
1935,3518
1922,3519
1926,3520
1929,3521
1905,3522
1927,3523
1950,3524
1904,3525
1921,3526
1954,3527
1967,3528
1963,3529
1944,3530
1978,3531
1972,3532
1982,3533
1985,3534
1974,3535
1956,3536
1939,3537
1941,3538
1941,3539
1934,3540
1941,3541
1907,3542
1945,3543
1931,3544
1935,3545
1941,3546
1964,3547
1970,3548
1976,3549
1961,3550
1981,3551
1972,3552
1958,3553
1965,3554
1936,3555
1942,3556
1932,3557
1940,3558
1927,3559
1942,3560
1942,3561
1923,3562
1956,3563
1941,3564
1950,3565
1958,3566
1963,3567
1976,3568
1944,3569
1967,3570
1961,3571
1988,3572
2001,3573
1985,3574
1967,3575
1965,3576
1952,3577
1939,3578
1913,3579
1925,3580
1948,3581
1931,3582
1935,3583
1913,3584
1935,3585
1961,3586
1964,3587
1990,3588
2023,3589
2001,3590
1993,3591
1984,3592
1967,3593
1942,3594
1958,3595
1956,3596
1946,3597
1915,3598
1936,3599
1913,3600
1897,3601
1924,3602
1922,3603
1923,3604
1953,3605
1952,3606
1931,3607
1985,3608
1945,3609
2000,3610
2009,3611
1988,3612
1954,3613
1941,3614
1977,3615
1957,3616
1955,3617
1938,3618
1926,3619
1927,3620
1924,3621
1941,3622
1928,3623
1926,3624
1948,3625
1932,3626
1953,3627
1967,3628
1945,3629
2008,3630
1967,3631
1984,3632
2005,3633
1989,3634
1952,3635
1947,3636
1952,3637
1940,3638
1915,3639
1923,3640
1924,3641
1918,3642
1947,3643
1952,3644
1968,3645
1935,3646
1956,3647
1973,3648
1949,3649
1953,3650
1988,3651
1984,3652
1962,3653
1979,3654
1971,3655
1957,3656
1959,3657
1930,3658
1893,3659
1897,3660
1904,3661
1900,3662
1907,3663
1934,3664
1957,3665
1913,3666
1980,3667
1957,3668
1941,3669
1983,3670
1977,3671
1978,3672
1960,3673
1964,3674
1976,3675
1946,3676
1931,3677
1936,3678
1931,3679
1912,3680
1921,3681
1928,3682
1924,3683
1949,3684
1938,3685
1946,3686
1967,3687
1960,3688
1965,3689
1970,3690
1964,3691
1972,3692
1991,3693
1978,3694
1967,3695
1931,3696
1962,3697
1957,3698
1946,3699
1909,3700
1943,3701
1943,3702
1930,3703
1947,3704
1959,3705
1940,3706
1974,3707
1955,3708
1959,3709
1981,3710
1943,3711
1978,3712
1984,3713
1978,3714
1957,3715
1955,3716
1948,3717
1950,3718
1933,3719
1899,3720
1928,3721
1917,3722
1916,3723
1923,3724
1931,3725
1952,3726
1952,3727
1950,3728
1980,3729
1978,3730
1968,3731
1933,3732
1960,3733
1960,3734
1951,3735
1954,3736
1934,3737
1955,3738
1931,3739
1932,3740
1910,3741
1927,3742
1935,3743
1915,3744
1941,3745
1970,3746
1973,3747
2013,3748
1977,3749
1990,3750
2000,3751
1968,3752
1972,3753
1946,3754
1949,3755
1938,3756
1951,3757
1913,3758
1947,3759
1947,3760
1954,3761
1939,3762
1952,3763
1960,3764
1959,3765
1957,3766
1976,3767
1976,3768
1953,3769
2002,3770
1979,3771
1978,3772
1956,3773
1941,3774
1960,3775
1930,3776
1911,3777
1939,3778
1934,3779
1919,3780
1915,3781
1919,3782
1913,3783
1900,3784
1901,3785
1947,3786
1949,3787
1953,3788
1976,3789
1963,3790
2016,3791
2008,3792
2001,3793
1971,3794
1942,3795
1968,3796
1939,3797
1912,3798
1895,3799
1936,3800
1928,3801
1891,3802
1896,3803
1939,3804
1944,3805
1958,3806
1933,3807
1976,3808
1951,3809
1977,3810
1997,3811
1979,3812
1951,3813
1944,3814
1939,3815
1926,3816
1950,3817
1932,3818
1895,3819
1928,3820
1938,3821
1914,3822
1906,3823
1938,3824
1951,3825
1960,3826
1962,3827
1969,3828
1978,3829
1979,3830
1995,3831
1983,3832
1984,3833
1978,3834
1959,3835
1966,3836
1949,3837
1946,3838
1924,3839
1925,3840
1921,3841
1920,3842
1913,3843
1946,3844
1936,3845
1959,3846
1981,3847
2001,3848
1973,3849
1975,3850
1994,3851
1991,3852
1996,3853
1951,3854
1981,3855
1943,3856
1940,3857
1918,3858
1875,3859
1925,3860
1922,3861
1904,3862
1919,3863
1943,3864
1949,3865
1939,3866
1945,3867
1952,3868
1948,3869
1974,3870
1942,3871
1968,3872
1965,3873
1966,3874
1966,3875
1967,3876
1969,3877
1946,3878
1938,3879
1923,3880
1942,3881
1896,3882
1929,3883
1938,3884
1945,3885
1923,3886
1972,3887
1975,3888
1985,3889
1971,3890
1976,3891
1978,3892
1950,3893
1962,3894
1944,3895
1945,3896
1959,3897
1933,3898
1949,3899
1921,3900
1948,3901
1928,3902
1926,3903
1894,3904
1957,3905
1948,3906
1959,3907
1929,3908
1978,3909
1963,3910
1971,3911
1971,3912
1964,3913
1964,3914
1931,3915
1902,3916
1944,3917
1922,3918
1908,3919
1928,3920
1903,3921
1943,3922
1908,3923
1949,3924
1957,3925
1956,3926
1949,3927
1968,3928
1964,3929
1995,3930
1983,3931
1943,3932
1953,3933
1978,3934
1974,3935
1939,3936
1936,3937
1944,3938
1896,3939
1901,3940
1887,3941
1928,3942
1927,3943
1904,3944
1960,3945
1942,3946
1975,3947
1981,3948
1934,3949
2000,3950
1966,3951
1991,3952
1979,3953
1976,3954
1952,3955
1931,3956
1952,3957
1928,3958
1944,3959
1936,3960
1878,3961
1925,3962
1920,3963
1912,3964
1947,3965
1932,3966
1929,3967
1964,3968
1957,3969
1966,3970
1964,3971
1978,3972
1951,3973
1954,3974
1925,3975
1929,3976
1940,3977
1908,3978
1928,3979
1903,3980
1922,3981
1933,3982
1899,3983
1945,3984
1927,3985
1935,3986
1938,3987
1954,3988
1960,3989
1963,3990
1963,3991
1980,3992
1968,3993
1956,3994
1939,3995
1910,3996
1927,3997
1928,3998
1905,3999
1888,4000
1895,4001
1926,4002
1932,4003
1945,4004
1974,4005
1965,4006
1946,4007
1975,4008
1961,4009
1936,4010
1967,4011
1980,4012
1975,4013
1950,4014
1956,4015
1948,4016
1924,4017
1968,4018
1942,4019
1912,4020
1904,4021
1902,4022
1927,4023
1922,4024
1906,4025
1956,4026
1968,4027
1962,4028
1982,4029
1990,4030
1956,4031
1971,4032
1995,4033
1967,4034
1914,4035
1923,4036
1963,4037
1935,4038
1935,4039
1936,4040
1916,4041
1886,4042
1917,4043
1925,4044
1940,4045
1957,4046
1940,4047
1974,4048
1965,4049
1944,4050
1973,4051
1973,4052
1944,4053
1968,4054
1970,4055
1964,4056
1943,4057
1947,4058
1941,4059
1952,4060
1939,4061
1887,4062
1923,4063
1902,4064
1929,4065
1922,4066
1945,4067
1948,4068
1959,4069
1968,4070
1919,4071
1949,4072
1939,4073
1929,4074
1926,4075
1935,4076
1936,4077
1927,4078
1911,4079
1935,4080
1949,4081
1936,4082
1946,4083
1920,4084
1944,4085
1948,4086
1960,4087
1952,4088
1983,4089
1971,4090
1983,4091
1981,4092
1954,4093
1975,4094
1967,4095
1904,4096
1935,4097
1964,4098
1940,4099
1964,4100
1910,4101
1932,4102
1926,4103
1911,4104
1906,4105
1933,4106
1952,4107
1962,4108
1969,4109
1966,4110
1984,4111
1976,4112
1972,4113
1965,4114
1971,4115
1969,4116
1947,4117
1945,4118
1925,4119
1902,4120
1913,4121
1917,4122
1895,4123
1912,4124
1916,4125
1935,4126
1939,4127
1952,4128
1949,4129
1978,4130
1952,4131
1971,4132
1966,4133
1950,4134
1922,4135
1952,4136
1942,4137
1961,4138
1943,4139
1920,4140
1926,4141
1934,4142
1923,4143
1943,4144
1952,4145
1958,4146
1955,4147
1956,4148
1986,4149
1983,4150
1979,4151
1966,4152
1959,4153
1947,4154
1917,4155
1909,4156
1935,4157
1920,4158
1926,4159
1920,4160
1920,4161
1924,4162
1946,4163
1924,4164
1952,4165
1959,4166
1954,4167
2004,4168
1989,4169
2007,4170
2001,4171
2008,4172
1960,4173
1994,4174
1976,4175
1954,4176
1933,4177
1922,4178
1932,4179
1927,4180
1907,4181
1930,4182
1931,4183
1911,4184
1895,4185
1917,4186
1956,4187
1931,4188
1931,4189
1951,4190
1980,4191
1987,4192
1980,4193
1950,4194
1975,4195
1949,4196
1946,4197
1922,4198
1943,4199
1937,4200
1925,4201
1932,4202
1934,4203
1915,4204
1916,4205
1932,4206
1969,4207
1950,4208
1959,4209
1931,4210
1979,4211
1959,4212
1927,4213
1969,4214
1963,4215
1962,4216
1944,4217
1947,4218
1930,4219
1916,4220
1927,4221
1895,4222
1932,4223
1925,4224
1929,4225
1939,4226
1949,4227
1931,4228
1968,4229
1952,4230
1967,4231
1974,4232
1968,4233
1969,4234
1952,4235
1963,4236
1938,4237
1914,4238
1917,4239
1913,4240
1912,4241
1923,4242
1893,4243
1941,4244
1929,4245
1951,4246
1934,4247
1966,4248
1983,4249
1982,4250
1978,4251
1984,4252
1991,4253
1967,4254
1950,4255
1946,4256
1939,4257
1929,4258
1929,4259
1925,4260
1911,4261
1888,4262
1934,4263
1920,4264
1943,4265
1956,4266
1954,4267
1971,4268
1969,4269
1992,4270
1930,4271
1968,4272
1970,4273
1972,4274
1960,4275
1933,4276
1941,4277
1948,4278
1920,4279
1904,4280
1921,4281
1914,4282
1927,4283
1932,4284
1911,4285
1952,4286
1952,4287
1946,4288
1957,4289
1988,4290
1939,4291
1975,4292
1972,4293
1969,4294
1923,4295
1945,4296
1916,4297
1934,4298
1927,4299
1923,4300
1930,4301
1911,4302
1907,4303
1927,4304
1946,4305
1946,4306
1960,4307
1955,4308
1968,4309
1955,4310
1977,4311
1994,4312
1959,4313
1944,4314
1988,4315
1925,4316
1926,4317
1936,4318
1928,4319
1928,4320
1907,4321
1893,4322
1929,4323
1917,4324
1932,4325
1935,4326
1976,4327
1983,4328
1972,4329
1977,4330
1978,4331
1959,4332
1955,4333
1977,4334
1955,4335
1959,4336
1921,4337
1943,4338
1936,4339
1906,4340
1893,4341
1906,4342
1909,4343
1932,4344
1929,4345
1910,4346
1899,4347
1936,4348
1923,4349
1969,4350
1973,4351
1927,4352
1962,4353
1941,4354
1949,4355
1961,4356
1948,4357
1927,4358
1927,4359
1928,4360
1888,4361
1929,4362
1930,4363
1944,4364
1940,4365
1952,4366
1960,4367
1979,4368
1986,4369
2007,4370
1977,4371
1987,4372
1960,4373
1952,4374
1921,4375
1951,4376
1916,4377
1911,4378
1889,4379
1931,4380
1904,4381
1902,4382
1936,4383
1923,4384
1933,4385
1958,4386
1968,4387
1964,4388
1980,4389
1993,4390
1990,4391
1939,4392
1975,4393
1969,4394
1957,4395
1945,4396
1911,4397
1923,4398
1918,4399
1936,4400
1909,4401
1923,4402
1903,4403
1927,4404
1942,4405
1904,4406
1954,4407
1960,4408
1953,4409
1975,4410
1970,4411
1979,4412
1961,4413
1976,4414
1981,4415
1947,4416
1941,4417
1936,4418
1958,4419
1925,4420
1960,4421
1931,4422
1929,4423
1921,4424
1912,4425
1909,4426
1935,4427
1945,4428
1949,4429
1950,4430
1971,4431
1975,4432
1972,4433
1996,4434
1931,4435
1903,4436
1952,4437
1937,4438
1923,4439
1919,4440
1884,4441
1887,4442
1892,4443
1904,4444
1919,4445
1943,4446
1933,4447
1982,4448
1978,4449
1983,4450
1967,4451
1953,4452
1963,4453
1967,4454
1969,4455
1931,4456
1937,4457
1921,4458
1926,4459
1902,4460
1925,4461
1935,4462
1909,4463
1937,4464
1970,4465
1955,4466
1958,4467
1955,4468
1955,4469
1959,4470
1970,4471
1979,4472
1971,4473
1962,4474
1941,4475
1944,4476
1906,4477
1927,4478
1919,4479
1912,4480
1940,4481
1932,4482
1913,4483
1950,4484
1961,4485
1923,4486
1935,4487
1965,4488
1966,4489
1956,4490
1968,4491
1967,4492
1953,4493
1926,4494
1958,4495
1945,4496
1943,4497
1928,4498
1913,4499
1921,4500
1931,4501
1897,4502
1924,4503
1929,4504
1929,4505
1938,4506
1931,4507
1932,4508
1934,4509
1968,4510
1991,4511
1962,4512
1970,4513
1963,4514
1953,4515
1945,4516
1922,4517
1920,4518
1918,4519
1922,4520
1927,4521
1935,4522
1942,4523
1946,4524
1961,4525
1938,4526
1941,4527
1964,4528
1980,4529
1993,4530
1974,4531
1975,4532
1985,4533
1929,4534
1938,4535
1945,4536
1954,4537
1903,4538
1930,4539
1914,4540
1923,4541
1935,4542
1935,4543
1948,4544
1944,4545
1942,4546
1953,4547
1965,4548
1960,4549
2007,4550
1977,4551
1955,4552
1971,4553
1973,4554
1929,4555
1935,4556
1928,4557
1913,4558
1920,4559
1905,4560
1925,4561
1912,4562
1940,4563
1929,4564
1922,4565
1940,4566
1960,4567
1920,4568
1963,4569
1988,4570
1962,4571
1979,4572
1950,4573
1945,4574
1967,4575
1969,4576
1960,4577
1933,4578
1938,4579
1937,4580
1925,4581
1903,4582
1944,4583
1926,4584
1907,4585
1950,4586
1948,4587
1965,4588
1944,4589
1970,4590
1966,4591
1967,4592
1967,4593
1967,4594
1916,4595
1922,4596
1938,4597
1894,4598
1921,4599
1900,4600
1888,4601
1927,4602
1935,4603
1939,4604
1947,4605
1960,4606
1944,4607
1981,4608
1970,4609
1981,4610
1973,4611
1968,4612
1985,4613
1961,4614
1944,4615
1947,4616
1942,4617
1942,4618
1895,4619
1915,4620
1920,4621
1903,4622
1926,4623
1942,4624
1927,4625
1941,4626
1947,4627
1964,4628
1950,4629
1994,4630
1977,4631
1977,4632
1955,4633
1957,4634
1953,4635
1939,4636
1936,4637
1923,4638
1907,4639
1921,4640
1907,4641
1925,4642
1932,4643
1903,4644
1930,4645
1927,4646
1968,4647
1958,4648
1972,4649
1971,4650
1999,4651
1954,4652
1960,4653
1948,4654
1965,4655
1960,4656
1951,4657
1955,4658
1915,4659
1910,4660
1932,4661
1949,4662
1903,4663
1939,4664
1939,4665
1960,4666
1956,4667
1960,4668
1942,4669
1949,4670
1985,4671
1954,4672
1976,4673
1970,4674
1952,4675
1943,4676
1910,4677
1933,4678
1886,4679
1920,4680
1904,4681
1911,4682
1907,4683
1922,4684
1922,4685
1930,4686
1976,4687
1991,4688
1963,4689
1966,4690
1977,4691
1961,4692
1968,4693
1931,4694
1920,4695
1948,4696
1942,4697
1920,4698
1909,4699
1912,4700
1927,4701
1935,4702
1924,4703
1926,4704
1928,4705
1955,4706
1984,4707
1971,4708
1976,4709
1945,4710
1964,4711
1947,4712
1963,4713
1967,4714
1950,4715
1953,4716
1947,4717
1921,4718
1943,4719
1905,4720
1895,4721
1929,4722
1927,4723
1929,4724
1958,4725
1927,4726
1968,4727
1961,4728
1991,4729
1976,4730
1963,4731
1969,4732
1964,4733
1967,4734
1917,4735
1948,4736
1911,4737
1922,4738
1955,4739
1899,4740
1921,4741
1939,4742
1927,4743
1942,4744
1917,4745
1951,4746
1938,4747
1985,4748
1952,4749
1963,4750
1967,4751
1962,4752
1985,4753
1953,4754
1967,4755
1935,4756
1915,4757
1932,4758
1891,4759
1935,4760
1887,4761
1912,4762
1898,4763
1919,4764
1940,4765
1956,4766
1948,4767
1959,4768
1967,4769
2000,4770
1990,4771
1957,4772
1976,4773
1959,4774
1952,4775
1938,4776
1944,4777
1937,4778
1907,4779
1914,4780
1913,4781
1925,4782
1913,4783
1936,4784
1913,4785
1956,4786
1959,4787
1968,4788
1962,4789
1957,4790
1917,4791
1949,4792
1957,4793
1969,4794
1965,4795
1948,4796
1957,4797
1951,4798
1964,4799
1913,4800
1944,4801
1940,4802
1944,4803
1910,4804
1916,4805
1960,4806
1951,4807
1965,4808
1950,4809
1973,4810
1954,4811
1941,4812
1958,4813
1962,4814
1946,4815
1944,4816
1932,4817
1934,4818
1912,4819
1919,4820
1915,4821
1895,4822
1924,4823
1942,4824
1955,4825
1958,4826
1949,4827
1959,4828
1963,4829
1961,4830
1961,4831
1971,4832
1963,4833
1928,4834
1930,4835
1933,4836
1919,4837
1924,4838
1925,4839
1924,4840
1913,4841
1931,4842
1917,4843
1941,4844
1941,4845
1953,4846
1915,4847
1989,4848
1987,4849
1994,4850
1965,4851
1957,4852
1919,4853
1928,4854
1926,4855
1926,4856
1911,4857
1906,4858
1909,4859
1926,4860
1882,4861
1916,4862
1903,4863
1936,4864
1945,4865
1948,4866
1968,4867
1987,4868
1992,4869
1972,4870
1959,4871
1983,4872
1937,4873
1923,4874
1935,4875
1953,4876
1936,4877
1941,4878
1923,4879
1925,4880
1908,4881
1920,4882
1916,4883
1942,4884
1949,4885
1970,4886
1957,4887
1934,4888
1957,4889
1941,4890
1993,4891
1959,4892
1969,4893
1948,4894
1968,4895
1943,4896
1928,4897
1911,4898
1938,4899
1901,4900
1938,4901
1928,4902
1929,4903
1936,4904
1968,4905
1940,4906
1957,4907
1959,4908
1942,4909
1969,4910
1980,4911
1927,4912
1928,4913
1960,4914
1911,4915
1933,4916
1883,4917
1932,4918
1892,4919
1891,4920
1916,4921
1909,4922
1920,4923
1923,4924
1955,4925
1946,4926
1951,4927
1955,4928
1967,4929
1993,4930
1981,4931
1952,4932
1956,4933
1963,4934
1924,4935
1932,4936
1936,4937
1939,4938
1899,4939
1933,4940
1918,4941
1920,4942
1912,4943
1912,4944
1926,4945
1932,4946
1947,4947
1951,4948
1966,4949
1927,4950
1944,4951
1958,4952
1944,4953
1948,4954
1944,4955
1909,4956
1894,4957
1927,4958
1933,4959
1916,4960
1947,4961
1926,4962
1961,4963
1952,4964
1955,4965
1964,4966
2001,4967
1973,4968
1984,4969
1984,4970
1988,4971
1984,4972
1963,4973
1929,4974
1959,4975
1936,4976
1937,4977
1898,4978
1927,4979
1911,4980
1920,4981
1918,4982
1927,4983
1935,4984
1913,4985
1944,4986
1928,4987
1949,4988
1968,4989
1990,4990
1977,4991
1975,4992
1993,4993
1957,4994
1940,4995
1926,4996
1898,4997
1891,4998
1905,4999
1945,5000
1917,5001
1911,5002
1907,5003
1917,5004
1898,5005
1950,5006
1964,5007
1957,5008
1992,5009
1974,5010
1984,5011
1977,5012
1974,5013
1974,5014
1948,5015
1952,5016
1919,5017
1945,5018
1927,5019
1917,5020
1884,5021
1928,5022
1902,5023
1931,5024
1919,5025
1925,5026
1956,5027
1960,5028
1980,5029
1967,5030
1968,5031
1990,5032
1968,5033
1976,5034
1950,5035
1959,5036
1939,5037
1935,5038
1912,5039
1912,5040
1914,5041
1907,5042
1898,5043
1939,5044
1927,5045
1930,5046
1927,5047
1975,5048
1965,5049
1964,5050
1963,5051
1938,5052
1954,5053
1982,5054
1935,5055
1961,5056
1951,5057
1895,5058
1894,5059
1916,5060
1949,5061
1920,5062
1945,5063
1936,5064
1948,5065
1956,5066
1949,5067
1944,5068
1976,5069
1944,5070
1960,5071
1958,5072
1941,5073
1953,5074
1948,5075
1931,5076
1941,5077
1926,5078
1919,5079
1897,5080
1911,5081
1878,5082
1934,5083
1956,5084
1934,5085
1928,5086
1962,5087
1928,5088
1982,5089
1964,5090
1967,5091
1968,5092
1911,5093
1944,5094
1940,5095
1916,5096
1938,5097
1933,5098
1924,5099
1928,5100
1920,5101
1928,5102
1951,5103
1917,5104
1947,5105
1952,5106
1958,5107
1955,5108
1941,5109
1960,5110
1968,5111
1935,5112
1967,5113
1951,5114
1935,5115
1942,5116
1889,5117
1895,5118
1914,5119
1901,5120
1944,5121
1897,5122
1926,5123
1921,5124
1907,5125
1923,5126
1929,5127
1973,5128
1940,5129
1953,5130
1944,5131
1935,5132
1943,5133
1954,5134
1912,5135
1929,5136
1924,5137
1908,5138
1908,5139
1916,5140
1894,5141
1901,5142
1926,5143
1939,5144
1930,5145
1931,5146
1927,5147
1952,5148
1931,5149
1971,5150
1927,5151
1957,5152
1944,5153
1946,5154
1897,5155
1912,5156
1921,5157
1903,5158
1925,5159
1933,5160
1902,5161
1948,5162
1956,5163
1910,5164
1936,5165
1905,5166
1925,5167
1955,5168
1961,5169
1927,5170
1929,5171
1985,5172
1937,5173
1907,5174
1887,5175
1910,5176
1921,5177
1901,5178
1921,5179
1913,5180
1952,5181
1895,5182
1936,5183
1925,5184
1951,5185
1948,5186
1930,5187
1994,5188
1968,5189
1977,5190
1952,5191
1971,5192
1930,5193
1954,5194
1952,5195
1944,5196
1920,5197
1948,5198
1928,5199
1896,5200
1909,5201
1906,5202
1929,5203
1911,5204
1950,5205
1954,5206
1964,5207
1963,5208
1976,5209
1999,5210
1972,5211
2000,5212
1960,5213
1931,5214
1947,5215
1916,5216
1926,5217
1938,5218
1946,5219
1912,5220
1948,5221
1934,5222
1917,5223
1936,5224
1943,5225
1933,5226
1959,5227
1927,5228
1950,5229
1939,5230
1960,5231
1976,5232
1932,5233
1963,5234
1936,5235
1932,5236
1923,5237
1928,5238
1919,5239
1927,5240
1948,5241
1919,5242
1957,5243
1996,5244
1958,5245
1972,5246
1957,5247
1980,5248
1980,5249
1945,5250
1990,5251
1963,5252
1978,5253
1934,5254
1947,5255
1945,5256
1925,5257
1913,5258
1961,5259
1932,5260
1936,5261
1915,5262
1942,5263
1946,5264
1954,5265
1962,5266
1951,5267
1947,5268
1976,5269
1981,5270
1970,5271
1957,5272
1974,5273
1943,5274
1924,5275
1920,5276
1930,5277
1939,5278
1938,5279
1937,5280
1937,5281
1920,5282
1943,5283
1944,5284
1940,5285
1933,5286
1955,5287
1957,5288
1972,5289
1972,5290
1983,5291
1953,5292
1976,5293
1955,5294
1934,5295
1944,5296
1921,5297
1940,5298
1910,5299
1927,5300
1901,5301
1941,5302
1940,5303
1951,5304
1978,5305
1941,5306
1977,5307
1958,5308
1989,5309
1972,5310
1942,5311
1938,5312
1987,5313
1969,5314
1963,5315
1943,5316
1926,5317
1952,5318
1945,5319
1919,5320
1947,5321
1936,5322
1910,5323
1904,5324
1938,5325
1959,5326
1954,5327
1932,5328
1978,5329
1970,5330
1962,5331
1963,5332
1975,5333
1938,5334
1905,5335
1948,5336
1931,5337
1930,5338
1952,5339
1920,5340
1944,5341
1918,5342
1914,5343
1926,5344
1953,5345
1953,5346
1961,5347
1958,5348
1962,5349
1937,5350
1968,5351
1958,5352
1964,5353
1964,5354
1944,5355
1930,5356
1931,5357
1933,5358
1932,5359
1931,5360
1955,5361
1930,5362
1899,5363
1945,5364
1937,5365
1944,5366
1950,5367
1928,5368
1952,5369
1971,5370
1964,5371
1965,5372
1944,5373
1966,5374
1960,5375
1964,5376
1916,5377
1945,5378
1921,5379
1912,5380
1936,5381
1929,5382
1962,5383
1948,5384
1973,5385
1933,5386
1983,5387
1962,5388
1976,5389
1947,5390
1963,5391
1983,5392
1968,5393
1954,5394
1959,5395
1952,5396
1947,5397
1948,5398
1931,5399
1936,5400
1937,5401
1924,5402
1936,5403
1953,5404
1970,5405
1937,5406
1977,5407
1961,5408
1971,5409
1957,5410
1971,5411
1934,5412
1949,5413
1944,5414
1929,5415
1926,5416
1916,5417
1928,5418
1890,5419
1892,5420
1909,5421
1928,5422
1926,5423
1943,5424
1956,5425
1966,5426
1980,5427
1983,5428
1989,5429
1996,5430
1964,5431
1975,5432
1945,5433
1981,5434
1969,5435
1947,5436
1943,5437
1946,5438
1925,5439
1941,5440
1928,5441
1940,5442
1894,5443
1927,5444
1946,5445
1955,5446
1967,5447
1967,5448
1948,5449
1977,5450
1977,5451
1954,5452
1960,5453
1962,5454
1956,5455
1945,5456
1954,5457
1920,5458
1951,5459
1940,5460
1927,5461
1947,5462
1934,5463
1952,5464
1947,5465
1953,5466
1976,5467
1965,5468
1964,5469
1937,5470
1969,5471
1990,5472
1966,5473
1958,5474
1950,5475
1959,5476
1951,5477
1938,5478
1916,5479
1908,5480
1940,5481
1941,5482
1944,5483
1927,5484
1915,5485
1953,5486
1966,5487
1970,5488
1955,5489
1953,5490
1983,5491
1978,5492
1981,5493
1934,5494
1951,5495
1948,5496
1960,5497
1935,5498
1935,5499
1934,5500
1951,5501
1940,5502
1923,5503
1968,5504
1938,5505
1937,5506
1939,5507
1930,5508
1964,5509
1971,5510
1951,5511
1972,5512
1961,5513
1951,5514
1939,5515
1935,5516
1926,5517
1932,5518
1939,5519
1912,5520
1896,5521
1935,5522
1915,5523
1942,5524
1935,5525
1949,5526
1941,5527
1954,5528
1927,5529
1967,5530
1971,5531
1969,5532
1963,5533
1951,5534
1953,5535
1920,5536
1930,5537
1925,5538
1927,5539
1922,5540
1911,5541
1927,5542
1941,5543
1930,5544
1932,5545
1927,5546
1954,5547
1959,5548
1989,5549
1970,5550
1974,5551
1938,5552
1959,5553
1946,5554
1936,5555
1951,5556
1905,5557
1940,5558
1920,5559
1921,5560
1900,5561
1903,5562
1915,5563
1948,5564
1947,5565
1959,5566
1973,5567
1952,5568
1991,5569
1982,5570
1985,5571
1975,5572
1957,5573
1965,5574
1964,5575
1941,5576
1936,5577
1934,5578
1940,5579
1911,5580
1925,5581
1907,5582
1945,5583
1935,5584
1906,5585
1930,5586
1930,5587
1958,5588
1959,5589
1984,5590
1971,5591
1954,5592
1975,5593
1936,5594
1959,5595
1948,5596
1933,5597
1927,5598
1941,5599
1922,5600
1942,5601
1945,5602
1927,5603
1921,5604
1929,5605
1951,5606
1978,5607
1934,5608
1980,5609
1990,5610
1955,5611
1970,5612
1966,5613
1963,5614
1919,5615
1947,5616
1912,5617
1911,5618
1922,5619
1935,5620
1926,5621
1939,5622
1947,5623
1929,5624
1948,5625
1917,5626
1935,5627
1951,5628
1935,5629
1959,5630
1936,5631
1972,5632
1981,5633
1961,5634
1921,5635
1942,5636
1923,5637
1925,5638
1940,5639
1932,5640
1923,5641
1927,5642
1926,5643
1924,5644
1956,5645
1931,5646
1953,5647
1987,5648
1973,5649
1979,5650
1970,5651
1961,5652
1947,5653
1967,5654
1941,5655
1928,5656
1940,5657
1921,5658
1890,5659
1904,5660
1922,5661
1919,5662
1917,5663
1934,5664
1945,5665
1956,5666
1958,5667
1965,5668
1960,5669
1998,5670
2002,5671
1993,5672
1982,5673
1972,5674
1967,5675
1936,5676
1939,5677
1935,5678
1926,5679
1927,5680
1947,5681
1938,5682
1940,5683
1915,5684
1942,5685
1919,5686
1935,5687
1974,5688
1943,5689
1972,5690
1927,5691
1974,5692
1931,5693
1947,5694
1936,5695
1959,5696
1939,5697
1936,5698
1936,5699
1937,5700
1949,5701
1926,5702
1927,5703
1965,5704
1955,5705
1942,5706
1972,5707
1979,5708
1982,5709
1951,5710
1971,5711
1965,5712
1950,5713
1972,5714
1938,5715
1943,5716
1934,5717
1937,5718
1935,5719
1904,5720
1900,5721
1928,5722
1922,5723
1953,5724
1946,5725
1957,5726
1979,5727
1990,5728
1974,5729
1968,5730
1994,5731
1960,5732
1963,5733
1953,5734
1946,5735
1934,5736
1943,5737
1914,5738
1937,5739
1932,5740
1925,5741
1920,5742
1909,5743
1950,5744
1922,5745
1923,5746
1967,5747
1929,5748
1956,5749
1976,5750
1984,5751
1968,5752
1945,5753
1961,5754
1944,5755
1918,5756
1922,5757
1891,5758
1909,5759
1912,5760
1905,5761
1935,5762
1932,5763
1935,5764
1957,5765
1950,5766
1943,5767
1972,5768
2007,5769
2000,5770
1975,5771
1972,5772
1942,5773
1982,5774
1929,5775
1935,5776
1933,5777
1939,5778
1928,5779
1946,5780
1938,5781
1916,5782
1941,5783
1938,5784
1921,5785
1954,5786
1981,5787
1974,5788
1984,5789
1975,5790
1992,5791
1973,5792
1956,5793
1952,5794
1961,5795
1946,5796
1925,5797
1922,5798
1916,5799
1918,5800
1924,5801
1919,5802
1922,5803
1923,5804
1939,5805
1968,5806
1954,5807
1988,5808
1981,5809
1963,5810
2008,5811
1949,5812
1956,5813
1961,5814
1959,5815
1942,5816
1940,5817
1930,5818
1931,5819
1938,5820
1953,5821
1946,5822
1948,5823
1948,5824
1940,5825
1920,5826
1945,5827
1942,5828
1932,5829
1944,5830
1963,5831
1951,5832
1956,5833
1948,5834
1928,5835
1911,5836
1952,5837
1927,5838
1941,5839
1892,5840
1905,5841
1961,5842
1923,5843
1939,5844
1954,5845
1956,5846
1944,5847
1964,5848
1983,5849
1951,5850
1990,5851
1958,5852
1958,5853
1955,5854
1914,5855
1918,5856
1925,5857
1940,5858
1918,5859
1935,5860
1928,5861
1910,5862
1916,5863
1936,5864
1961,5865
1940,5866
1952,5867
1929,5868
1974,5869
1974,5870
1966,5871
1960,5872
1935,5873
1998,5874
1943,5875
1964,5876
1965,5877
1954,5878
1925,5879
1922,5880
1903,5881
1940,5882
1932,5883
1938,5884
1931,5885
1951,5886
1948,5887
1937,5888
1956,5889
1979,5890
1948,5891
1968,5892
1967,5893
1961,5894
1928,5895
1956,5896
1952,5897
1933,5898
1919,5899
1921,5900
1931,5901
1917,5902
1946,5903
1960,5904
1953,5905
1972,5906
1953,5907
1970,5908
1966,5909
1974,5910
1967,5911
1977,5912
1964,5913
1942,5914
1954,5915
1918,5916
1941,5917
1956,5918
1930,5919
1928,5920
1918,5921
1942,5922
1942,5923
1918,5924
1929,5925
1948,5926
1945,5927
1966,5928
1985,5929
2000,5930
1986,5931
1944,5932
1948,5933
1952,5934
1941,5935
1923,5936
1936,5937
1936,5938
1897,5939
1944,5940
1918,5941
1915,5942
1938,5943
1919,5944
1924,5945
1936,5946
1941,5947
1986,5948
1980,5949
1983,5950
1985,5951
1955,5952
1956,5953
1943,5954
1935,5955
1957,5956
1955,5957
1944,5958
1887,5959
1935,5960
1923,5961
1930,5962
1918,5963
1937,5964
1963,5965
1966,5966
1970,5967
1970,5968
1974,5969
1995,5970
1959,5971
1977,5972
1940,5973
1955,5974
1947,5975
1949,5976
1945,5977
1925,5978
1952,5979
1919,5980
1906,5981
1939,5982
1941,5983
1952,5984
1957,5985
1948,5986
1969,5987
1968,5988
1974,5989
1957,5990
1943,5991
1965,5992
1979,5993
1963,5994
1946,5995
1940,5996
1959,5997
1891,5998
1932,5999
1906,6000
1934,6001
1935,6002
1921,6003
1953,6004
1939,6005
1936,6006
1959,6007
1974,6008
1978,6009
1975,6010
1950,6011
1970,6012
1949,6013
1942,6014
1930,6015
1921,6016
1924,6017
1903,6018
1940,6019
1936,6020
1920,6021
1930,6022
1905,6023
1945,6024
1923,6025
1946,6026
1966,6027
1980,6028
1977,6029
1979,6030
1948,6031
1948,6032
1968,6033
1963,6034
1934,6035
1954,6036
1968,6037
1951,6038
1943,6039
1912,6040
1960,6041
1927,6042
1968,6043
1957,6044
1966,6045
1949,6046
1970,6047
1948,6048
1986,6049
1954,6050
1965,6051
1954,6052
1952,6053
1959,6054
1959,6055
1936,6056
1934,6057
1939,6058
1910,6059
1943,6060
1925,6061
1924,6062
1952,6063
1951,6064
1964,6065
1952,6066
1982,6067
1958,6068
1963,6069
1984,6070
1950,6071
1964,6072
1976,6073
1951,6074
1958,6075
1942,6076
1942,6077
1941,6078
1936,6079
1950,6080
1937,6081
1931,6082
1935,6083
1948,6084
1911,6085
1917,6086
1948,6087
1962,6088
1960,6089
1991,6090
1954,6091
2003,6092
1958,6093
1948,6094
1970,6095
1911,6096
1949,6097
1927,6098
1952,6099
1931,6100
1920,6101
1945,6102
1895,6103
1935,6104
1952,6105
1950,6106
1948,6107
1948,6108
1976,6109
1969,6110
1978,6111
1946,6112
1967,6113
1942,6114
1958,6115
1918,6116
1944,6117
1941,6118
1926,6119
1920,6120
1936,6121
1927,6122
1921,6123
1947,6124
1939,6125
1960,6126
1948,6127
1972,6128
1958,6129
1965,6130
1983,6131
1968,6132
1963,6133
1951,6134
1944,6135
1962,6136
1925,6137
1953,6138
1937,6139
1911,6140
1925,6141
1939,6142
1949,6143
1962,6144
1959,6145
1927,6146
1974,6147
1964,6148
1957,6149
1948,6150
1961,6151
1976,6152
1966,6153
1955,6154
1960,6155
1943,6156
1945,6157
1932,6158
1955,6159
1938,6160
1939,6161
1952,6162
1940,6163
1945,6164
1930,6165
1952,6166
1950,6167
1955,6168
1969,6169
1953,6170
1961,6171
1958,6172
1954,6173
1950,6174
1956,6175
1916,6176
1941,6177
1898,6178
1927,6179
1918,6180
1907,6181
1932,6182
1905,6183
1948,6184
1944,6185
1942,6186
1982,6187
1970,6188
1989,6189
1963,6190
1968,6191
1970,6192
1950,6193
1967,6194
1961,6195
1964,6196
1935,6197
1936,6198
1940,6199
1939,6200
1927,6201
1914,6202
1933,6203
1931,6204
1954,6205
1953,6206
1943,6207
1943,6208
1956,6209
1971,6210
1944,6211
1945,6212
1972,6213
1927,6214
1935,6215
1925,6216
1946,6217
1944,6218
1899,6219
1920,6220
1944,6221
1944,6222
1952,6223
1940,6224
1945,6225
1926,6226
1956,6227
1946,6228
1976,6229
1978,6230
1987,6231
1955,6232
1971,6233
1953,6234
1957,6235
1922,6236
1937,6237
1957,6238
1939,6239
1953,6240
1933,6241
1920,6242
1907,6243
1925,6244
1974,6245
1952,6246
1966,6247
1963,6248
1961,6249
1976,6250
1923,6251
1972,6252
1957,6253
1927,6254
1959,6255
1932,6256
1935,6257
1917,6258
1934,6259
1956,6260
1907,6261
1955,6262
1932,6263
1938,6264
1944,6265
1942,6266
1956,6267
1960,6268
1991,6269
1959,6270
1982,6271
1973,6272
1976,6273
1957,6274
1941,6275
1960,6276
1897,6277
1940,6278
1921,6279
1899,6280
1924,6281
1932,6282
1928,6283
1959,6284
1966,6285
1962,6286
1977,6287
1975,6288
1982,6289
1983,6290
1996,6291
1964,6292
1968,6293
1952,6294
1961,6295
1951,6296
1949,6297
1923,6298
1906,6299
1943,6300
1926,6301
1950,6302
1907,6303
1944,6304
1943,6305
1940,6306
1943,6307
1945,6308
1992,6309
1972,6310
1980,6311
1980,6312
1939,6313
1955,6314
1954,6315
1928,6316
1949,6317
1926,6318
1954,6319
1958,6320
1930,6321
1937,6322
1919,6323
1906,6324
1931,6325
1917,6326
1943,6327
1951,6328
1980,6329
1945,6330
1978,6331
1943,6332
1965,6333
1961,6334
1971,6335
1977,6336
1943,6337
1960,6338
1939,6339
1933,6340
1904,6341
1956,6342
1955,6343
1957,6344
1952,6345
1955,6346
1977,6347
1982,6348
1948,6349
1976,6350
1945,6351
1969,6352
1978,6353
1983,6354
1959,6355
1957,6356
1935,6357
1929,6358
1934,6359
1935,6360
1892,6361
1914,6362
1945,6363
1941,6364
1960,6365
1948,6366
1953,6367
1976,6368
1969,6369
2000,6370
1951,6371
1974,6372
1944,6373
1955,6374
1969,6375
1955,6376
1967,6377
1929,6378
1919,6379
1929,6380
1927,6381
1960,6382
1919,6383
1947,6384
1962,6385
1952,6386
1932,6387
1959,6388
1985,6389
1980,6390
1972,6391
1969,6392
1977,6393
1978,6394
1978,6395
1992,6396
1946,6397
1942,6398
1956,6399
1911,6400
1933,6401
1924,6402
1936,6403
1931,6404
1953,6405
1921,6406
1948,6407
1968,6408
1976,6409
1963,6410
1977,6411
1984,6412
1968,6413
1967,6414
1935,6415
1960,6416
1949,6417
1936,6418
1928,6419
1947,6420
1927,6421
1960,6422
1936,6423
1932,6424
1955,6425
1951,6426
1951,6427
1961,6428
1981,6429
1967,6430
1982,6431
1954,6432
1952,6433
1968,6434
1936,6435
1965,6436
1944,6437
1892,6438
1939,6439
1935,6440
1928,6441
1928,6442
1928,6443
1951,6444
1968,6445
1953,6446
1975,6447
1968,6448
1998,6449
1984,6450
1981,6451
1993,6452
1963,6453
1954,6454
1948,6455
1939,6456
1925,6457
1944,6458
1947,6459
1944,6460
1933,6461
1948,6462
1936,6463
1945,6464
1944,6465
1953,6466
1927,6467
1972,6468
1974,6469
1947,6470
1977,6471
1950,6472
1952,6473
1950,6474
1957,6475
1934,6476
1950,6477
1914,6478
1946,6479
1944,6480
1929,6481
1937,6482
1928,6483
1956,6484
1959,6485
1956,6486
1962,6487
1981,6488
1976,6489
1960,6490
1959,6491
1980,6492
1988,6493
1973,6494
1967,6495
1965,6496
1972,6497
1944,6498
1925,6499
1937,6500
1948,6501
1926,6502
1924,6503
1931,6504
1945,6505
1950,6506
1944,6507
1981,6508
1944,6509
1975,6510
1975,6511
1968,6512
1976,6513
1942,6514
1952,6515
1943,6516
1919,6517
1913,6518
1933,6519
1908,6520
1900,6521
1915,6522
1936,6523
1925,6524
1935,6525
1960,6526
1988,6527
1984,6528
1984,6529
1977,6530
1971,6531
1963,6532
1979,6533
1957,6534
1956,6535
1951,6536
1966,6537
1943,6538
1935,6539
1943,6540
1916,6541
1927,6542
1930,6543
1953,6544
1939,6545
1962,6546
1959,6547
1944,6548
1976,6549
1976,6550
1992,6551
1982,6552
1997,6553
1970,6554
1982,6555
1935,6556
1965,6557
1942,6558
1923,6559
1951,6560
1947,6561
1927,6562
1902,6563
1931,6564
1940,6565
1915,6566
1929,6567
1928,6568
1960,6569
1956,6570
1963,6571
1950,6572
1958,6573
1909,6574
1951,6575
1903,6576
1930,6577
1891,6578
1952,6579
1941,6580
1952,6581
1962,6582
1955,6583
1967,6584
1980,6585
1968,6586
1972,6587
1976,6588
1975,6589
1981,6590
1965,6591
1991,6592
1971,6593
1982,6594
1941,6595
1939,6596
1932,6597
1942,6598
1908,6599
1940,6600
1920,6601
1936,6602
1930,6603
1944,6604
1953,6605
1958,6606
1964,6607
1961,6608
1976,6609
1975,6610
1977,6611
1976,6612
1966,6613
1983,6614
1919,6615
1913,6616
1902,6617
1927,6618
1961,6619
1940,6620
1917,6621
1918,6622
1927,6623
1947,6624
1976,6625
1935,6626
1936,6627
1964,6628
1993,6629
2008,6630
1984,6631
1960,6632
1973,6633
1925,6634
1955,6635
1942,6636
1935,6637
1940,6638
1877,6639
1916,6640
1902,6641
1913,6642
1922,6643
1958,6644
1962,6645
1962,6646
1964,6647
1961,6648
1966,6649
1985,6650
1962,6651
2004,6652
1973,6653
1958,6654
1977,6655
1943,6656
1949,6657
1929,6658
1954,6659
1903,6660
1935,6661
1947,6662
1941,6663
1950,6664
1948,6665
1950,6666
1961,6667
1989,6668
2009,6669
1981,6670
1976,6671
1972,6672
1989,6673
1998,6674
1973,6675
1957,6676
1922,6677
1919,6678
1904,6679
1922,6680
1892,6681
1937,6682
1919,6683
1916,6684
1930,6685
1940,6686
1961,6687
1967,6688
1991,6689
1981,6690
1973,6691
1961,6692
1960,6693
1968,6694
1936,6695
1923,6696
1896,6697
1913,6698
1914,6699
1912,6700
1928,6701
1941,6702
1929,6703
1968,6704
1944,6705
1952,6706
1979,6707
1998,6708
1999,6709
1989,6710
2004,6711
2008,6712
2019,6713
2009,6714
2009,6715
1997,6716
1952,6717
1967,6718
1950,6719
1920,6720
1926,6721
1926,6722
1942,6723
1938,6724
1925,6725
1959,6726
1990,6727
1959,6728
1973,6729
1963,6730
1945,6731
1935,6732
1947,6733
1970,6734
1979,6735
1985,6736
2008,6737
2026,6738
2045,6739
2036,6740
1985,6741
2019,6742
1984,6743
1957,6744
1954,6745
1934,6746
1910,6747
1931,6748
1950,6749
1977,6750
2006,6751
1999,6752
2031,6753
2009,6754
1964,6755
1935,6756
1938,6757
1876,6758
1870,6759
1934,6760
1875,6761
1888,6762
1905,6763
1917,6764
1901,6765
1932,6766
1923,6767
1975,6768
2011,6769
2040,6770
2025,6771
2035,6772
2008,6773
1981,6774
1954,6775
1935,6776
1901,6777
1851,6778
1911,6779
1884,6780
1856,6781
1887,6782
1921,6783
1943,6784
1944,6785
1981,6786
1984,6787
1994,6788
2006,6789
2012,6790
1999,6791
1980,6792
1977,6793
2027,6794
2047,6795
2138,6796
2161,6797
2151,6798
2184,6799
2167,6800
2093,6801
2040,6802
1992,6803
1941,6804
1890,6805
1871,6806
1809,6807
1790,6808
1808,6809
1812,6810
1835,6811
1826,6812
1847,6813
1873,6814
1865,6815
1894,6816
1902,6817
1932,6818
1951,6819
2037,6820
2011,6821
1987,6822
2011,6823
1971,6824
1975,6825
1937,6826
1921,6827
1954,6828
1910,6829
1928,6830
1930,6831
1871,6832
1912,6833
1888,6834
1926,6835
1927,6836
1911,6837
1880,6838
1912,6839
1900,6840
1920,6841
1924,6842
1939,6843
1966,6844
1990,6845
2013,6846
2001,6847
1982,6848
2008,6849
1951,6850
1950,6851
1983,6852
1953,6853
1982,6854
1951,6855
1908,6856
1880,6857
1872,6858
1910,6859
1911,6860
1912,6861
1920,6862
1915,6863
1946,6864
1945,6865
1959,6866
1967,6867
1971,6868
1962,6869
1927,6870
1968,6871
1946,6872
1942,6873
1944,6874
1887,6875
1895,6876
1884,6877
1849,6878
1845,6879
1880,6880
1856,6881
1860,6882
1869,6883
1851,6884
1837,6885
1830,6886
1873,6887
1880,6888
1892,6889
1926,6890
1928,6891
1922,6892
1974,6893
1962,6894
1977,6895
1939,6896
1941,6897
1953,6898
1928,6899
1941,6900
1928,6901
1948,6902
1907,6903
1896,6904
1852,6905
1831,6906
1857,6907
1814,6908
1820,6909
1845,6910
1862,6911
1904,6912
1943,6913
1962,6914
2033,6915
2109,6916
2183,6917
2191,6918
2151,6919
2098,6920
2053,6921
2024,6922
1991,6923
1947,6924
1941,6925
1956,6926
1961,6927
1960,6928
2011,6929
2039,6930
2007,6931
1986,6932
2001,6933
1947,6934
1936,6935
1891,6936
1880,6937
1889,6938
1841,6939
1818,6940
1835,6941
1864,6942
1836,6943
1814,6944
1904,6945
1971,6946
1979,6947
2009,6948
1994,6949
1994,6950
1933,6951
1969,6952
1977,6953
1934,6954
1924,6955
1895,6956
1924,6957
1923,6958
1903,6959
1894,6960
1932,6961
1935,6962
1931,6963
1933,6964
1939,6965
1969,6966
1929,6967
1956,6968
1959,6969
1971,6970
2002,6971
2018,6972
2011,6973
2016,6974
1960,6975
1980,6976
1950,6977
1921,6978
1888,6979
1916,6980
1906,6981
1885,6982
1903,6983
1942,6984
1963,6985
2047,6986
2092,6987
2142,6988
2160,6989
2174,6990
2172,6991
2128,6992
2082,6993
2011,6994
1897,6995
1833,6996
1784,6997
1807,6998
1774,6999
1821,7000
1849,7001
1899,7002
1927,7003
1947,7004
1972,7005
1997,7006
1999,7007
2076,7008
2171,7009
2208,7010
2159,7011
2117,7012
2048,7013
2013,7014
1945,7015
1944,7016
1957,7017
1968,7018
2000,7019
2012,7020
2005,7021
1953,7022
1932,7023
1845,7024
1796,7025
1793,7026
1770,7027
1787,7028
1783,7029
1882,7030
1918,7031
1929,7032
1928,7033
2020,7034
2062,7035
2049,7036
2034,7037
2054,7038
2050,7039
2043,7040
2059,7041
2013,7042
2020,7043
2006,7044
2001,7045
2018,7046
1995,7047
1956,7048
1969,7049
1983,7050
1927,7051
1924,7052
1924,7053
1926,7054
1933,7055
1942,7056
1963,7057
1942,7058
1930,7059
1919,7060
1922,7061
1934,7062
1947,7063
2040,7064
2067,7065
2128,7066
2230,7067
2267,7068
2263,7069
2225,7070
2179,7071
2095,7072
2000,7073
1953,7074
1947,7075
1909,7076
1899,7077
1895,7078
1872,7079
1848,7080
1838,7081
1927,7082
1994,7083
2108,7084
2143,7085
2169,7086
2149,7087
2115,7088
2099,7089
2067,7090
2101,7091
2107,7092
2120,7093
2114,7094
2089,7095
2064,7096
2008,7097
1942,7098
1821,7099
1718,7100
1733,7101
1752,7102
1880,7103
1989,7104
2038,7105
2017,7106
2076,7107
2064,7108
2061,7109
2062,7110
2076,7111
2070,7112
2168,7113
2322,7114
2295,7115
2253,7116
2181,7117
2108,7118
1985,7119
1846,7120
1731,7121
1704,7122
1698,7123
1742,7124
1775,7125
1802,7126
1867,7127
2011,7128
2042,7129
2052,7130
2045,7131
2050,7132
2056,7133
2030,7134
2036,7135
2004,7136
1923,7137
1986,7138
2173,7139
2226,7140
2222,7141
2205,7142
2134,7143
2036,7144
1957,7145
1920,7146
1914,7147
1982,7148
2206,7149
2346,7150
2325,7151
2248,7152
2185,7153
2111,7154
1996,7155
1876,7156
1756,7157
1697,7158
1722,7159
1780,7160
1781,7161
1822,7162
1845,7163
1866,7164
1918,7165
1920,7166
1979,7167
2031,7168
2021,7169
2032,7170
2029,7171
2054,7172
2027,7173
1927,7174
1909,7175
1869,7176
1923,7177
1940,7178
1953,7179
1950,7180
1998,7181
1994,7182
2029,7183
2067,7184
2103,7185
2113,7186
2104,7187
2036,7188
1972,7189
1929,7190
1943,7191
2028,7192
2162,7193
2178,7194
2230,7195
2215,7196
2188,7197
2228,7198
2284,7199
2413,7200
2411,7201
2344,7202
2227,7203
2092,7204
2000,7205
1825,7206
1741,7207
1736,7208
1902,7209
1998,7210
2096,7211
2203,7212
2236,7213
2223,7214
2145,7215
2063,7216
1980,7217
1889,7218
1902,7219
1977,7220
2137,7221
2220,7222
2208,7223
2160,7224
2106,7225
2072,7226
2087,7227
2045,7228
1973,7229
1924,7230
1934,7231
1949,7232
2006,7233
2105,7234
2194,7235
2230,7236
2205,7237
2142,7238
2096,7239
2108,7240
2090,7241
2045,7242
2017,7243
1947,7244
1888,7245
1886,7246
1862,7247
1827,7248
1876,7249
2136,7250
2298,7251
2383,7252
2302,7253
2283,7254
2160,7255
2037,7256
1964,7257
1856,7258
1782,7259
1789,7260
1847,7261
1841,7262
1848,7263
1851,7264
1924,7265
1986,7266
2044,7267
2082,7268
2072,7269
2030,7270
1992,7271
1979,7272
1940,7273
1957,7274
1961,7275
2031,7276
2047,7277
2057,7278
2017,7279
2086,7280
2125,7281
2158,7282
2158,7283
2144,7284
2172,7285
2159,7286
2129,7287
2095,7288
2096,7289
2066,7290
2008,7291
1966,7292
1938,7293
1970,7294
1988,7295
1994,7296
1959,7297
1932,7298
1864,7299
1903,7300
1913,7301
1931,7302
1944,7303
2016,7304
2005,7305
2057,7306
2096,7307
2249,7308
2313,7309
2288,7310
2253,7311
2139,7312
2026,7313
1949,7314
1861,7315
1995,7316
2149,7317
2279,7318
2335,7319
2315,7320
2211,7321
2056,7322
1905,7323
1830,7324
1737,7325
1728,7326
1774,7327
1923,7328
1973,7329
1988,7330
1971,7331
2004,7332
2088,7333
2229,7334
2333,7335
2607,7336
2619,7337
2539,7338
2360,7339
2271,7340
2117,7341
1898,7342
1790,7343
1691,7344
1631,7345
1610,7346
1593,7347
1597,7348
1687,7349
1710,7350
1744,7351
1763,7352
1784,7353
1843,7354
1942,7355
1973,7356
1971,7357
2019,7358
2042,7359
2075,7360
2068,7361
2061,7362
2051,7363
2019,7364
2052,7365
2091,7366
2126,7367
2192,7368
2223,7369
2198,7370
2193,7371
2125,7372
2112,7373
2100,7374
2059,7375
2012,7376
1976,7377
2005,7378
1981,7379
1977,7380
2083,7381
2128,7382
2132,7383
2153,7384
2293,7385
2284,7386
2267,7387
2228,7388
2224,7389
2159,7390
2075,7391
2005,7392
2046,7393
2067,7394
2128,7395
2180,7396
2159,7397
2151,7398
2163,7399
2088,7400
2056,7401
2030,7402
1949,7403
1976,7404
2021,7405
2065,7406
2121,7407
2189,7408
2256,7409
2295,7410
2267,7411
2200,7412
2118,7413
2032,7414
1990,7415
1947,7416
1876,7417
1837,7418
1903,7419
1914,7420
1952,7421
1982,7422
2030,7423
2110,7424
2211,7425
2272,7426
2295,7427
2293,7428
2278,7429
2135,7430
2038,7431
2012,7432
2040,7433
2131,7434
2236,7435
2303,7436
2246,7437
2231,7438
2343,7439
2293,7440
2211,7441
2107,7442
2034,7443
2020,7444
2030,7445
2079,7446
2096,7447
2109,7448
2127,7449
2113,7450
2063,7451
2116,7452
2157,7453
2162,7454
2116,7455
2119,7456
2125,7457
2055,7458
2047,7459
2027,7460
2017,7461
1983,7462
2090,7463
2039,7464
2092,7465
2058,7466
2005,7467
1989,7468
1924,7469
1925,7470
1970,7471
2048,7472
2160,7473
2255,7474
2312,7475
2337,7476
2453,7477
2404,7478
2380,7479
2278,7480
2161,7481
2122,7482
2124,7483
2101,7484
2144,7485
2127,7486
2097,7487
2094,7488
2076,7489
2129,7490
2113,7491
2159,7492
2129,7493
2074,7494
2002,7495
2040,7496
2247,7497
2404,7498
2364,7499
2325,7500
2301,7501
2209,7502
2115,7503
2123,7504
2059,7505
1936,7506
1929,7507
1926,7508
2032,7509
2056,7510
2133,7511
2107,7512
2091,7513
2092,7514
2051,7515
2073,7516
2063,7517
2051,7518
2041,7519
2018,7520
2008,7521
1938,7522
1930,7523
1911,7524
1987,7525
2141,7526
2293,7527
2300,7528
2231,7529
2140,7530
2060,7531
2051,7532
2187,7533
2293,7534
2379,7535
2554,7536
2586,7537
2558,7538
2598,7539
2497,7540
2298,7541
2160,7542
2048,7543
1857,7544
1829,7545
1691,7546
1613,7547
1690,7548
1724,7549
1925,7550
1981,7551
2046,7552
2033,7553
2019,7554
2016,7555
2014,7556
2104,7557
2318,7558
2406,7559
2405,7560
2318,7561
2247,7562
2197,7563
2048,7564
1969,7565
1993,7566
1990,7567
1994,7568
1981,7569
2020,7570
2054,7571
2064,7572
2107,7573
2233,7574
2445,7575
2504,7576
2485,7577
2397,7578
2350,7579
2274,7580
2173,7581
2075,7582
1989,7583
1962,7584
1927,7585
1871,7586
1900,7587
1900,7588
1934,7589
1859,7590
1856,7591
1873,7592
1864,7593
1857,7594
1903,7595
1907,7596
1951,7597
1980,7598
1955,7599
1961,7600
2049,7601
2116,7602
2207,7603
2256,7604
2239,7605
2244,7606
2154,7607
2156,7608
2227,7609
2256,7610
2345,7611
2441,7612
2350,7613
2296,7614
2198,7615
2098,7616
2026,7617
1955,7618
2024,7619
2011,7620
2031,7621
2043,7622
2106,7623
2229,7624
2336,7625
2351,7626
2318,7627
2294,7628
2172,7629
2055,7630
1966,7631
1882,7632
2056,7633
2167,7634
2211,7635
2179,7636
2134,7637
2008,7638
1924,7639
1868,7640
1799,7641
1752,7642
1820,7643
1874,7644
1986,7645
2010,7646
2211,7647
2279,7648
2359,7649
2368,7650
2234,7651
2200,7652
2071,7653
2116,7654
2143,7655
2156,7656
2196,7657
2183,7658
2079,7659
1975,7660
1886,7661
1885,7662
1871,7663
1874,7664
1842,7665
1879,7666
1932,7667
1951,7668
1954,7669
1976,7670
2022,7671
2153,7672
2380,7673
2454,7674
2398,7675
2324,7676
2245,7677
2201,7678
2179,7679
2187,7680
2208,7681
2229,7682
2251,7683
2213,7684
2168,7685
2065,7686
1906,7687
1936,7688
1909,7689
1896,7690
1952,7691
1962,7692
1964,7693
1929,7694
1921,7695
1969,7696
2019,7697
2057,7698
2097,7699
2118,7700
2292,7701
2307,7702
2328,7703
2255,7704
2072,7705
1934,7706
1888,7707
1815,7708
1812,7709
1853,7710
1896,7711
2009,7712
2146,7713
2408,7714
2672,7715
2770,7716
2703,7717
2555,7718
2441,7719
2233,7720
1993,7721
2036,7722
2030,7723
2178,7724
2423,7725
2421,7726
2324,7727
2164,7728
1973,7729
1723,7730
1477,7731
1425,7732
1493,7733
1631,7734
1753,7735
1895,7736
2056,7737
2088,7738
2096,7739
2068,7740
2072,7741
2051,7742
2057,7743
2016,7744
2026,7745
2015,7746
1998,7747
2000,7748
2085,7749
2098,7750
2138,7751
2200,7752
2281,7753
2384,7754
2515,7755
2544,7756
2441,7757
2379,7758
2224,7759
2094,7760
2053,7761
2014,7762
2010,7763
2048,7764
2011,7765
1996,7766
1960,7767
1903,7768
1835,7769
1745,7770
1796,7771
1854,7772
2004,7773
2260,7774
2367,7775
2370,7776
2317,7777
2333,7778
2320,7779
2235,7780
2214,7781
2188,7782
2079,7783
1943,7784
1931,7785
1934,7786
1952,7787
1925,7788
1971,7789
1880,7790
1814,7791
1896,7792
1902,7793
1900,7794
1874,7795
1940,7796
2048,7797
2240,7798
2457,7799
2485,7800
2443,7801
2464,7802
2378,7803
2280,7804
2198,7805
2137,7806
2053,7807
1958,7808
1966,7809
2175,7810
2151,7811
2174,7812
2213,7813
2157,7814
2022,7815
1887,7816
1684,7817
1605,7818
1574,7819
1582,7820
1579,7821
1728,7822
1849,7823
1933,7824
1992,7825
2124,7826
2233,7827
2253,7828
2432,7829
2615,7830
2703,7831
2693,7832
2684,7833
2631,7834
2591,7835
2412,7836
2263,7837
2079,7838
1912,7839
1863,7840
1870,7841
1843,7842
1795,7843
1718,7844
1616,7845
1645,7846
1800,7847
1938,7848
2161,7849
2242,7850
2256,7851
2343,7852
2495,7853
2766,7854
2852,7855
2738,7856
2495,7857
2199,7858
1917,7859
1632,7860
1496,7861
1316,7862
1359,7863
1625,7864
1844,7865
1959,7866
2028,7867
2073,7868
2023,7869
1944,7870
1832,7871
1733,7872
1643,7873
1604,7874
1581,7875
1655,7876
1715,7877
1811,7878
1862,7879
1971,7880
2096,7881
2213,7882
2209,7883
2198,7884
2150,7885
2172,7886
2381,7887
2430,7888
2400,7889
2344,7890
2152,7891
2071,7892
1959,7893
1733,7894
1576,7895
1561,7896
1633,7897
1655,7898
1685,7899
1660,7900
1849,7901
1983,7902
2069,7903
2091,7904
2077,7905
2263,7906
2434,7907
2577,7908
2471,7909
2365,7910
2224,7911
1914,7912
1669,7913
1511,7914
1516,7915
1542,7916
1699,7917
1711,7918
1791,7919
1791,7920
1881,7921
1940,7922
1925,7923
1888,7924
1934,7925
2054,7926
2059,7927
2101,7928
2096,7929
2085,7930
2041,7931
2059,7932
2062,7933
2095,7934
2086,7935
2229,7936
2397,7937
2383,7938
2431,7939
2343,7940
2144,7941
1957,7942
1780,7943
1622,7944
1531,7945
1442,7946
1485,7947
1654,7948
1847,7949
1910,7950
1946,7951
1882,7952
1945,7953
1968,7954
1964,7955
1897,7956
1874,7957
1851,7958
1940,7959
1936,7960
1923,7961
1895,7962
1905,7963
2014,7964
2145,7965
2183,7966
2255,7967
2368,7968
2422,7969
2326,7970
2154,7971
1971,7972
1872,7973
1743,7974
1701,7975
1607,7976
1615,7977
1630,7978
1784,7979
1976,7980
2087,7981
2090,7982
2002,7983
1909,7984
1794,7985
1680,7986
1565,7987
1704,7988
1852,7989
2083,7990
2330,7991
2402,7992
2398,7993
2377,7994
2472,7995
2294,7996
2009,7997
1876,7998
1708,7999
1577,8000
1526,8001
1544,8002
1590,8003
1642,8004
1720,8005
1852,8006
1925,8007
1889,8008
1877,8009
1794,8010
1736,8011
1666,8012
1677,8013
1671,8014
1735,8015
1902,8016
2086,8017
2159,8018
2122,8019
2211,8020
2186,8021
2186,8022
2183,8023
2099,8024
2019,8025
1996,8026
1954,8027
1956,8028
2023,8029
2229,8030
2146,8031
1981,8032
1903,8033
1840,8034
1753,8035
1611,8036
1525,8037
1548,8038
1632,8039
1704,8040
1906,8041
2041,8042
2232,8043
2580,8044
2912,8045
2926,8046
2684,8047
2368,8048
2007,8049
1602,8050
1403,8051
1199,8052
1152,8053
1235,8054
1392,8055
1584,8056
1719,8057
1890,8058
1965,8059
2032,8060
2005,8061
1966,8062
1823,8063
1812,8064
1867,8065
1904,8066
1934,8067
2006,8068
1987,8069
1940,8070
1878,8071
1869,8072
1863,8073
1893,8074
2147,8075
2417,8076
2463,8077
2423,8078
2307,8079
2186,8080
1951,8081
1813,8082
1648,8083
1524,8084
1494,8085
1473,8086
1525,8087
1608,8088
1620,8089
1699,8090
1711,8091
1718,8092
1718,8093
1727,8094
1820,8095
1879,8096
1964,8097
2051,8098
2084,8099
2028,8100
1960,8101
1888,8102
1941,8103
2001,8104
2231,8105
2281,8106
2220,8107
2175,8108
2163,8109
2210,8110
2207,8111
2147,8112
1990,8113
1944,8114
1766,8115
1692,8116
1601,8117
1464,8118
1571,8119
1696,8120
1742,8121
1829,8122
1959,8123
1945,8124
1919,8125
1962,8126
2147,8127
2175,8128
2239,8129
2105,8130
1932,8131
1685,8132
1532,8133
1542,8134
1616,8135
1728,8136
1845,8137
1937,8138
2075,8139
2152,8140
2080,8141
1972,8142
1877,8143
1762,8144
1656,8145
1657,8146
1671,8147
1768,8148
1907,8149
2154,8150
2197,8151
2177,8152
2082,8153
1945,8154
1783,8155
1648,8156
1495,8157
1518,8158
1631,8159
1719,8160
1812,8161
2039,8162
2265,8163
2275,8164
2285,8165
2091,8166
1972,8167
1956,8168
1959,8169
1996,8170
2070,8171
2168,8172
2297,8173
2311,8174
2137,8175
1923,8176
1761,8177
1564,8178
1412,8179
1330,8180
1415,8181
1578,8182
1699,8183
1799,8184
1811,8185
1821,8186
1848,8187
2028,8188
2283,8189
2298,8190
2247,8191
2137,8192
2087,8193
2067,8194
2042,8195
1893,8196
1768,8197
1675,8198
1619,8199
1587,8200
1540,8201
1595,8202
1843,8203
2133,8204
2288,8205
2311,8206
2289,8207
2143,8208
1976,8209
1754,8210
1586,8211
1359,8212
1350,8213
1456,8214
1527,8215
1574,8216
1752,8217
1879,8218
2141,8219
2200,8220
2081,8221
2048,8222
1988,8223
1880,8224
1768,8225
1764,8226
1740,8227
1831,8228
2063,8229
2281,8230
2269,8231
2228,8232
2426,8233
2476,8234
2322,8235
2039,8236
1794,8237
1579,8238
1444,8239
1371,8240
1353,8241
1442,8242
1847,8243
2288,8244
2418,8245
2444,8246
2264,8247
2057,8248
1873,8249
1734,8250
1671,8251
1661,8252
1691,8253
1608,8254
1650,8255
1629,8256
1766,8257
1979,8258
2125,8259
2144,8260
2085,8261
1991,8262
1879,8263
1785,8264
1704,8265
1617,8266
1584,8267
1813,8268
2088,8269
2133,8270
2092,8271
1940,8272
1868,8273
1667,8274
1620,8275
1563,8276
1563,8277
1661,8278
1736,8279
1865,8280
2051,8281
2297,8282
2321,8283
2223,8284
2168,8285
2097,8286
1973,8287
1903,8288
1905,8289
1860,8290
1917,8291
1931,8292
1814,8293
1669,8294
1615,8295
1585,8296
1684,8297
1697,8298
1705,8299
1717,8300
1686,8301
1724,8302
1780,8303
1925,8304
2083,8305
2233,8306
2251,8307
2209,8308
2116,8309
1959,8310
1812,8311
1700,8312
1798,8313
1885,8314
1948,8315
2105,8316
2138,8317
2040,8318
1922,8319
1749,8320
1698,8321
1624,8322
1684,8323
1705,8324
1722,8325
1790,8326
1724,8327
1726,8328
1726,8329
1718,8330
1952,8331
2224,8332
2352,8333
2326,8334
2213,8335
2035,8336
1807,8337
1531,8338
1517,8339
1713,8340
1883,8341
1922,8342
1966,8343
1949,8344
1875,8345
1922,8346
1862,8347
1932,8348
1980,8349
1916,8350
1828,8351
1722,8352
1709,8353
1683,8354
1674,8355
1726,8356
1719,8357
1952,8358
2208,8359
2432,8360
2530,8361
2511,8362
2400,8363
2130,8364
1875,8365
1697,8366
1551,8367
1485,8368
1538,8369
1539,8370
1573,8371
1608,8372
1618,8373
1606,8374
1752,8375
1924,8376
1961,8377
1965,8378
2047,8379
2060,8380
2096,8381
2078,8382
2004,8383
1850,8384
1845,8385
1827,8386
1803,8387
1771,8388
1816,8389
1935,8390
2061,8391
2188,8392
2155,8393
1929,8394
1800,8395
1771,8396
1679,8397
1586,8398
1572,8399
1621,8400
1614,8401
1622,8402
1639,8403
1622,8404
1616,8405
1711,8406
1851,8407
1946,8408
1949,8409
2023,8410
2152,8411
2244,8412
2292,8413
2238,8414
2151,8415
2141,8416
2116,8417
2047,8418
1986,8419
1967,8420
2031,8421
1965,8422
1892,8423
1799,8424
1719,8425
1794,8426
1736,8427
1674,8428
1717,8429
1819,8430
1870,8431
1803,8432
1711,8433
1635,8434
1578,8435
1604,8436
1716,8437
1829,8438
1855,8439
1964,8440
2033,8441
2180,8442
2175,8443
2096,8444
1982,8445
1982,8446
1941,8447
1963,8448
1858,8449
1771,8450
1760,8451
1804,8452
1775,8453
1787,8454
1751,8455
1774,8456
1852,8457
2056,8458
2244,8459
2314,8460
2322,8461
2166,8462
2082,8463
2007,8464
1923,8465
1830,8466
1727,8467
1724,8468
1660,8469
1633,8470
1691,8471
1836,8472
1910,8473
1945,8474
1975,8475
2031,8476
2071,8477
2054,8478
2002,8479
2086,8480
2175,8481
2062,8482
1964,8483
1815,8484
1648,8485
1565,8486
1456,8487
1469,8488
1577,8489
1617,8490
1816,8491
1966,8492
2080,8493
2173,8494
2361,8495
2393,8496
2329,8497
2185,8498
1931,8499
1744,8500
1588,8501
1607,8502
1612,8503
1639,8504
1803,8505
2014,8506
2134,8507
2135,8508
2124,8509
2037,8510
1863,8511
1727,8512
1678,8513
1649,8514
1696,8515
1750,8516
1879,8517
1967,8518
1912,8519
1903,8520
1903,8521
1954,8522
1997,8523
1955,8524
1932,8525
1881,8526
1974,8527
1994,8528
2135,8529
2273,8530
2265,8531
2175,8532
2016,8533
1858,8534
1787,8535
1897,8536
2003,8537
2080,8538
2086,8539
2180,8540
2103,8541
2036,8542
1810,8543
1639,8544
1498,8545
1418,8546
1408,8547
1448,8548
1444,8549
1497,8550
1570,8551
1604,8552
1691,8553
1724,8554
1770,8555
1753,8556
1897,8557
2162,8558
2415,8559
2532,8560
2522,8561
2448,8562
2394,8563
2430,8564
2331,8565
2125,8566
1929,8567
1793,8568
1616,8569
1451,8570
1412,8571
1458,8572
1520,8573
1607,8574
1632,8575
1636,8576
1637,8577
1715,8578
1900,8579
2078,8580
2112,8581
2044,8582
2300,8583
2497,8584
2498,8585
2316,8586
2170,8587
2086,8588
1912,8589
1729,8590
1495,8591
1418,8592
1496,8593
1719,8594
1848,8595
1875,8596
1835,8597
1746,8598
1748,8599
1833,8600
1891,8601
1980,8602
2041,8603
2072,8604
1984,8605
1868,8606
1722,8607
1600,8608
1551,8609
1598,8610
1810,8611
1944,8612
2000,8613
2077,8614
2041,8615
1931,8616
1867,8617
1757,8618
1606,8619
1544,8620
1591,8621
1667,8622
1816,8623
1907,8624
1983,8625
2043,8626
2042,8627
2030,8628
2211,8629
2288,8630
2314,8631
2308,8632
2168,8633
2053,8634
1939,8635
1815,8636
1806,8637
1984,8638
2083,8639
2110,8640
2076,8641
1936,8642
1775,8643
1583,8644
1528,8645
1703,8646
1812,8647
1763,8648
1828,8649
1885,8650
1816,8651
1724,8652
1749,8653
1606,8654
1652,8655
1722,8656
1733,8657
1719,8658
1735,8659
1669,8660
1674,8661
1659,8662
1720,8663
1769,8664
1818,8665
1894,8666
1980,8667
2058,8668
2160,8669
2219,8670
2194,8671
2238,8672
2180,8673
2023,8674
1907,8675
1798,8676
1753,8677
1777,8678
1745,8679
1757,8680
1776,8681
1748,8682
1759,8683
1810,8684
1973,8685
1970,8686
1992,8687
2009,8688
1959,8689
1913,8690
1845,8691
1814,8692
1734,8693
1753,8694
1715,8695
1809,8696
1885,8697
1962,8698
2025,8699
2116,8700
2103,8701
2011,8702
1964,8703
1870,8704
1759,8705
1668,8706
1728,8707
1784,8708
1893,8709
2025,8710
2066,8711
2071,8712
2039,8713
2017,8714
1928,8715
1919,8716
1924,8717
1923,8718
1865,8719
1913,8720
1878,8721
1845,8722
1816,8723
1738,8724
1676,8725
1692,8726
1792,8727
1915,8728
2051,8729
2117,8730
2092,8731
2093,8732
1967,8733
1827,8734
1771,8735
1715,8736
1712,8737
1885,8738
2108,8739
2186,8740
2134,8741
2001,8742
1855,8743
1727,8744
1666,8745
1716,8746
1776,8747
1795,8748
1829,8749
1885,8750
1891,8751
1864,8752
1823,8753
1803,8754
1810,8755
1774,8756
1772,8757
1763,8758
1782,8759
1807,8760
1823,8761
1835,8762
1881,8763
1901,8764
1934,8765
1911,8766
1952,8767
1955,8768
1957,8769
1977,8770
1983,8771
2000,8772
1965,8773
1923,8774
1855,8775
1863,8776
1861,8777
1886,8778
1880,8779
1896,8780
1891,8781
1920,8782
1956,8783
1888,8784
1871,8785
1864,8786
1911,8787
1951,8788
1967,8789
2038,8790
2170,8791
2137,8792
2104,8793
2036,8794
1939,8795
1874,8796
1807,8797
1766,8798
1838,8799
2255,8800
2443,8801
2480,8802
2359,8803
2209,8804
2046,8805
1770,8806
1661,8807
1536,8808
1552,8809
1633,8810
1714,8811
1850,8812
1936,8813
2009,8814
1976,8815
1964,8816
1923,8817
1875,8818
1776,8819
1739,8820
1727,8821
1796,8822
1806,8823
1784,8824
1827,8825
1885,8826
1916,8827
1960,8828
1978,8829
1982,8830
1974,8831
1987,8832
2000,8833
1983,8834
1928,8835
1992,8836
2043,8837
1971,8838
1911,8839
1872,8840
1920,8841
1982,8842
2053,8843
2056,8844
2042,8845
1999,8846
1974,8847
1938,8848
1898,8849
1825,8850
1804,8851
1738,8852
1762,8853
1848,8854
1884,8855
1936,8856
2067,8857
2061,8858
2032,8859
1948,8860
1936,8861
1893,8862
1866,8863
1924,8864
1936,8865
1938,8866
1954,8867
2029,8868
2070,8869
2086,8870
2113,8871
2114,8872
2049,8873
2050,8874
2091,8875
2078,8876
2066,8877
1998,8878
1863,8879
1760,8880
1680,8881
1732,8882
1748,8883
1748,8884
1771,8885
1848,8886
1880,8887
1951,8888
1984,8889
2071,8890
2102,8891
2173,8892
2146,8893
2100,8894
2078,8895
1971,8896
1850,8897
1786,8898
1879,8899
1999,8900
2086,8901
2220,8902
2239,8903
2176,8904
2136,8905
2046,8906
1945,8907
1858,8908
1758,8909
1807,8910
1807,8911
1886,8912
1904,8913
1906,8914
1944,8915
2007,8916
2012,8917
1980,8918
1955,8919
1972,8920
1955,8921
1883,8922
1855,8923
1861,8924
1840,8925
1860,8926
1891,8927
1904,8928
1912,8929
1910,8930
1921,8931
1970,8932
1981,8933
2065,8934
2194,8935
2280,8936
2280,8937
2222,8938
2077,8939
1957,8940
1831,8941
1771,8942
1728,8943
1811,8944
1915,8945
1961,8946
2023,8947
2013,8948
2011,8949
2000,8950
1974,8951
1940,8952
1827,8953
1893,8954
1955,8955
2003,8956
2006,8957
1960,8958
1952,8959
1915,8960
1885,8961
2035,8962
2249,8963
2254,8964
2120,8965
2087,8966
2013,8967
1912,8968
1860,8969
1888,8970
1886,8971
1817,8972
1876,8973
1898,8974
1868,8975
1850,8976
1877,8977
1861,8978
1868,8979
1926,8980
1955,8981
1962,8982
1995,8983
2034,8984
2188,8985
2333,8986
2309,8987
2245,8988
2236,8989
2119,8990
1977,8991
1843,8992
1752,8993
1729,8994
1742,8995
1759,8996
1885,8997
2048,8998
2208,8999
2402,9000
2460,9001
2403,9002
2290,9003
2110,9004
1937,9005
1930,9006
1944,9007
1951,9008
2003,9009
2044,9010
2089,9011
1989,9012
1923,9013
1848,9014
1812,9015
1755,9016
1757,9017
1746,9018
1746,9019
1748,9020
1737,9021
1735,9022
1787,9023
1833,9024
1889,9025
1951,9026
1981,9027
2015,9028
2053,9029
2071,9030
2051,9031
2037,9032
2095,9033
2123,9034
2225,9035
2214,9036
2194,9037
2119,9038
2045,9039
1970,9040
1863,9041
1884,9042
1896,9043
1958,9044
2009,9045
2007,9046
1991,9047
2000,9048
2006,9049
1936,9050
1893,9051
1878,9052
1873,9053
1924,9054
2037,9055
2132,9056
2318,9057
2377,9058
2408,9059
2308,9060
2203,9061
2094,9062
2038,9063
1943,9064
1835,9065
1757,9066
1691,9067
1715,9068
1776,9069
1841,9070
1904,9071
1993,9072
2048,9073
2028,9074
2019,9075
2006,9076
1999,9077
1874,9078
1841,9079
1793,9080
1868,9081
1867,9082
1879,9083
1883,9084
1927,9085
1942,9086
1916,9087
1952,9088
1963,9089
2015,9090
2039,9091
2066,9092
2024,9093
2048,9094
1995,9095
1944,9096
1941,9097
1984,9098
1980,9099
1950,9100
1910,9101
1923,9102
1988,9103
2041,9104
2013,9105
2117,9106
2155,9107
2108,9108
2044,9109
1979,9110
1905,9111
1885,9112
1862,9113
1860,9114
1917,9115
1991,9116
1985,9117
1961,9118
1945,9119
1984,9120
1963,9121
2024,9122
2260,9123
2343,9124
2349,9125
2255,9126
2093,9127
1993,9128
1868,9129
1779,9130
1823,9131
1876,9132
1871,9133
1934,9134
2026,9135
2044,9136
1980,9137
1970,9138
1883,9139
1848,9140
1773,9141
1777,9142
1740,9143
1789,9144
1843,9145
1876,9146
1924,9147
1960,9148
1999,9149
1975,9150
1962,9151
2105,9152
2171,9153
2194,9154
2159,9155
2137,9156
2042,9157
1953,9158
1909,9159
1848,9160
1789,9161
1828,9162
1891,9163
1950,9164
2045,9165
2078,9166
2037,9167
2017,9168
2068,9169
2093,9170
2145,9171
2246,9172
2290,9173
2343,9174
2286,9175
2146,9176
1957,9177
1839,9178
1777,9179
1694,9180
1740,9181
1750,9182
1843,9183
1889,9184
1900,9185
1941,9186
1960,9187
1974,9188
1984,9189
1984,9190
1992,9191
2003,9192
1931,9193
1900,9194
2018,9195
2051,9196
2026,9197
1951,9198
1935,9199
1890,9200
1904,9201
1877,9202
1933,9203
1963,9204
2000,9205
1993,9206
1991,9207
1963,9208
1955,9209
1920,9210
1925,9211
1953,9212
1930,9213
1904,9214
1888,9215
1882,9216
1863,9217
1890,9218
1903,9219
1952,9220
2130,9221
2365,9222
2403,9223
2373,9224
2216,9225
2083,9226
1945,9227
1814,9228
1720,9229
1751,9230
1851,9231
1886,9232
1873,9233
1998,9234
2099,9235
2191,9236
2192,9237
2116,9238
2064,9239
2035,9240
2008,9241
1927,9242
1886,9243
1799,9244
1781,9245
1847,9246
1970,9247
2059,9248
2172,9249
2205,9250
2302,9251
2308,9252
2172,9253
2056,9254
1936,9255
1804,9256
1671,9257
1643,9258
1637,9259
1692,9260
1791,9261
1902,9262
1962,9263
2013,9264
2056,9265
2057,9266
2080,9267
2186,9268
2294,9269
2280,9270
2203,9271
2093,9272
2000,9273
1856,9274
1808,9275
1783,9276
1838,9277
1860,9278
1889,9279
1887,9280
1908,9281
1938,9282
1976,9283
1960,9284
1967,9285
1964,9286
1920,9287
1985,9288
1999,9289
2048,9290
2075,9291
2083,9292
2083,9293
2108,9294
2178,9295
2087,9296
2022,9297
2015,9298
2036,9299
2065,9300
2090,9301
2012,9302
1985,9303
1880,9304
1748,9305
1640,9306
1677,9307
1749,9308
1848,9309
1887,9310
1880,9311
1878,9312
1925,9313
1936,9314
1942,9315
2008,9316
2103,9317
2181,9318
2138,9319
2135,9320
2121,9321
2034,9322
2024,9323
2005,9324
1999,9325
2009,9326
2009,9327
1994,9328
2023,9329
1984,9330
1983,9331
1982,9332
2018,9333
2127,9334
2168,9335
2167,9336
2083,9337
1969,9338
1815,9339
1710,9340
1685,9341
1711,9342
1811,9343
1892,9344
1973,9345
2020,9346
2041,9347
2049,9348
2016,9349
2122,9350
2211,9351
2177,9352
2114,9353
2096,9354
2020,9355
1963,9356
1973,9357
1877,9358
1916,9359
1998,9360
2028,9361
2024,9362
1926,9363
1915,9364
1867,9365
1848,9366
1880,9367
1925,9368
1976,9369
1942,9370
1996,9371
2051,9372
2115,9373
2048,9374
2094,9375
2036,9376
1986,9377
1965,9378
1944,9379
2007,9380
1976,9381
1959,9382
2005,9383
1991,9384
1952,9385
1919,9386
1952,9387
2020,9388
2014,9389
2047,9390
2012,9391
1940,9392
1888,9393
1824,9394
1854,9395
1908,9396
1960,9397
2019,9398
2091,9399
2183,9400
2223,9401
2179,9402
2093,9403
2024,9404
1939,9405
1935,9406
1864,9407
1824,9408
1950,9409
2019,9410
2020,9411
1957,9412
1950,9413
1988,9414
1936,9415
1912,9416
1876,9417
1830,9418
1849,9419
1873,9420
1879,9421
1937,9422
1961,9423
1990,9424
2023,9425
2029,9426
2201,9427
2366,9428
2470,9429
2386,9430
2314,9431
2212,9432
2043,9433
1887,9434
1788,9435
1686,9436
1668,9437
1696,9438
1801,9439
1880,9440
1948,9441
2052,9442
2111,9443
2072,9444
2079,9445
2047,9446
2001,9447
1986,9448
1940,9449
1984,9450
2023,9451
1982,9452
2034,9453
1954,9454
1934,9455
1946,9456
2009,9457
1992,9458
1991,9459
1988,9460
1987,9461
2005,9462
2107,9463
2167,9464
2150,9465
2055,9466
1993,9467
1994,9468
1940,9469
1920,9470
1925,9471
1884,9472
1847,9473
1880,9474
1867,9475
1888,9476
1922,9477
1939,9478
1915,9479
1957,9480
2015,9481
2031,9482
2064,9483
2092,9484
2200,9485
2310,9486
2420,9487
2430,9488
2336,9489
2260,9490
2171,9491
2063,9492
1942,9493
1844,9494
1712,9495
1763,9496
1807,9497
1813,9498
1829,9499
1882,9500
1874,9501
1836,9502
1812,9503
1830,9504
1841,9505
1895,9506
1920,9507
1987,9508
2017,9509
2064,9510
2093,9511
2099,9512
2026,9513
2004,9514
1971,9515
1990,9516
1998,9517
2024,9518
2047,9519
2014,9520
2034,9521
2011,9522
1998,9523
2050,9524
2142,9525
2222,9526
2386,9527
2432,9528
2400,9529
2291,9530
2212,9531
2032,9532
1926,9533
1828,9534
1778,9535
1829,9536
1844,9537
1896,9538
1945,9539
1959,9540
1906,9541
1956,9542
2108,9543
2159,9544
2075,9545
2047,9546
1983,9547
1941,9548
1944,9549
1934,9550
1999,9551
1984,9552
2032,9553
1978,9554
1993,9555
1974,9556
1973,9557
2015,9558
1986,9559
2002,9560
1973,9561
1950,9562
1906,9563
1926,9564
1877,9565
1979,9566
2068,9567
2145,9568
2230,9569
2291,9570
2391,9571
2432,9572
2323,9573
2170,9574
2001,9575
1841,9576
1737,9577
1733,9578
1705,9579
1827,9580
1878,9581
1873,9582
1913,9583
1918,9584
2040,9585
2022,9586
2014,9587
2004,9588
1960,9589
1937,9590
1917,9591
1925,9592
1939,9593
1957,9594
1982,9595
1997,9596
2024,9597
2072,9598
2072,9599
2062,9600
2094,9601
2127,9602
2143,9603
2188,9604
2191,9605
2127,9606
2131,9607
2136,9608
2076,9609
1988,9610
1976,9611
1968,9612
1944,9613
1937,9614
1919,9615
1913,9616
1887,9617
1959,9618
1977,9619
1980,9620
2064,9621
2072,9622
2043,9623
2034,9624
2044,9625
2002,9626
1927,9627
1909,9628
1980,9629
1982,9630
2012,9631
2009,9632
2091,9633
2080,9634
2133,9635
2047,9636
1996,9637
1997,9638
2016,9639
2051,9640
2068,9641
2086,9642
2099,9643
2049,9644
2039,9645
2103,9646
2154,9647
2189,9648
2188,9649
2118,9650
2045,9651
1986,9652
1929,9653
1913,9654
1893,9655
1891,9656
1904,9657
1911,9658
1942,9659
2012,9660
2038,9661
2147,9662
2104,9663
2104,9664
2095,9665
2040,9666
1984,9667
1976,9668
1959,9669
1897,9670
1953,9671
2006,9672
2115,9673
2101,9674
2114,9675
2084,9676
2088,9677
2043,9678
2005,9679
1927,9680
1888,9681
1866,9682
1947,9683
1937,9684
2050,9685
2023,9686
2038,9687
2010,9688
1928,9689
1905,9690
1923,9691
2011,9692
2128,9693
2195,9694
2176,9695
2122,9696
2055,9697
1992,9698
1902,9699
1859,9700
1820,9701
1830,9702
1901,9703
2019,9704
2166,9705
2151,9706
2144,9707
2063,9708
2022,9709
1928,9710
1768,9711
1804,9712
1870,9713
1893,9714
1969,9715
2000,9716
2069,9717
2162,9718
2237,9719
2243,9720
2243,9721
2148,9722
2107,9723
2121,9724
2098,9725
2056,9726
2013,9727
2008,9728
2056,9729
2125,9730
2180,9731
2132,9732
2045,9733
1975,9734
1908,9735
1882,9736
1873,9737
1877,9738
1945,9739
1960,9740
1932,9741
1876,9742
1884,9743
1953,9744
1976,9745
1983,9746
2005,9747
2014,9748
2020,9749
2097,9750
2164,9751
2083,9752
2128,9753
2205,9754
2171,9755
2105,9756
2044,9757
1947,9758
1898,9759
1868,9760
1835,9761
1896,9762
1903,9763
1906,9764
1914,9765
1865,9766
1842,9767
1851,9768
1935,9769
2049,9770
2123,9771
2311,9772
2379,9773
2419,9774
2378,9775
2438,9776
2330,9777
2138,9778
2059,9779
1912,9780
1802,9781
1731,9782
1704,9783
1740,9784
1811,9785
1886,9786
1946,9787
2047,9788
2067,9789
2041,9790
2064,9791
2094,9792
2041,9793
2030,9794
1903,9795
1887,9796
1873,9797
1834,9798
1800,9799
1865,9800
1896,9801
1955,9802
1967,9803
2053,9804
2227,9805
2433,9806
2496,9807
2495,9808
2358,9809
2219,9810
2054,9811
1908,9812
1752,9813
1678,9814
1733,9815
1728,9816
1709,9817
1744,9818
1838,9819
2045,9820
2240,9821
2344,9822
2320,9823
2272,9824
2184,9825
2069,9826
2071,9827
2131,9828
2253,9829
2208,9830
2152,9831
2071,9832
1949,9833
1876,9834
1784,9835
1730,9836
1785,9837
1848,9838
1848,9839
1880,9840
1820,9841
1858,9842
1935,9843
2000,9844
2082,9845
2133,9846
2170,9847
2131,9848
2055,9849
1998,9850
1984,9851
1931,9852
1880,9853
1848,9854
1915,9855
1915,9856
1942,9857
1940,9858
1935,9859
2064,9860
2197,9861
2199,9862
2185,9863
2161,9864
2196,9865
2306,9866
2411,9867
2342,9868
2164,9869
2064,9870
1975,9871
1874,9872
1760,9873
1752,9874
1750,9875
1711,9876
1675,9877
1737,9878
1774,9879
1848,9880
1935,9881
2106,9882
2136,9883
2180,9884
2224,9885
2078,9886
2008,9887
1934,9888
1926,9889
1944,9890
1951,9891
2058,9892
2116,9893
2125,9894
2047,9895
2078,9896
2059,9897
1960,9898
1914,9899
1938,9900
1996,9901
2104,9902
2226,9903
2249,9904
2210,9905
2132,9906
2022,9907
1957,9908
2042,9909
2061,9910
2052,9911
1981,9912
1935,9913
1887,9914
1869,9915
1846,9916
1836,9917
1813,9918
1731,9919
1741,9920
1765,9921
1898,9922
1997,9923
2173,9924
2310,9925
2395,9926
2344,9927
2238,9928
2148,9929
2164,9930
2088,9931
1973,9932
1887,9933
1995,9934
2095,9935
2060,9936
2126,9937
2072,9938
2038,9939
1945,9940
1832,9941
1727,9942
1623,9943
1696,9944
1954,9945
2257,9946
2546,9947
2685,9948
2619,9949
2511,9950
2392,9951
2381,9952
2425,9953
2339,9954
2168,9955
1975,9956
1808,9957
1650,9958
1665,9959
1825,9960
1860,9961
1824,9962
1877,9963
2137,9964
2344,9965
2403,9966
2684,9967
2727,9968
2632,9969
2520,9970
2387,9971
2047,9972
1798,9973
1566,9974
1476,9975
1982,9976
2392,9977
2433,9978
2590,9979
2729,9980
2630,9981
2224,9982
1766,9983
1369,9984
1183,9985
1201,9986
1124,9987
1108,9988
1135,9989
1217,9990
1394,9991
1521,9992
1551,9993
1581,9994
1673,9995
1750,9996
1808,9997
1917,9998
1998,9999
2078,10000
2314,10001
2648,10002
2692,10003
2647,10004
2692,10005
2653,10006
2541,10007
2272,10008
1934,10009
1709,10010
1525,10011
1485,10012
1497,10013
1511,10014
1533,10015
1599,10016
1627,10017
1711,10018
1894,10019
1955,10020
1968,10021
2000,10022
1963,10023
1959,10024
1968,10025
1950,10026
1944,10027
2003,10028
2022,10029
2042,10030
2052,10031
2069,10032
2192,10033
2255,10034
2216,10035
2112,10036
2075,10037
2002,10038
1992,10039
2055,10040
2147,10041
2167,10042
2159,10043
2215,10044
2214,10045
2179,10046
2243,10047
2454,10048
2695,10049
2693,10050
2415,10051
2132,10052
1888,10053
1626,10054
1452,10055
1306,10056
1239,10057
1329,10058
1494,10059
1639,10060
1776,10061
1896,10062
1993,10063
2067,10064
2104,10065
2072,10066
2032,10067
1985,10068
1918,10069
1839,10070
1897,10071
1963,10072
2019,10073
2100,10074
2114,10075
2047,10076
1981,10077
1893,10078
1807,10079
1808,10080
1837,10081
1858,10082
1972,10083
2047,10084
2079,10085
2049,10086
2024,10087
1963,10088
1976,10089
2093,10090
2179,10091
2203,10092
2202,10093
2132,10094
2062,10095
1925,10096
1872,10097
1911,10098
1939,10099
1940,10100
2068,10101
2147,10102
2135,10103
2096,10104
1996,10105
1854,10106
1820,10107
1739,10108
1732,10109
1777,10110
1848,10111
1927,10112
2001,10113
2088,10114
2137,10115
2107,10116
2035,10117
2015,10118
2037,10119
2168,10120
2182,10121
2129,10122
2108,10123
2073,10124
1948,10125
1845,10126
1836,10127
1824,10128
1857,10129
1885,10130
1903,10131
1918,10132
2021,10133
2085,10134
2131,10135
2070,10136
2046,10137
2053,10138
1985,10139
1920,10140
1900,10141
1867,10142
1944,10143
2065,10144
2171,10145
2334,10146
2262,10147
2193,10148
2087,10149
1979,10150
1854,10151
1854,10152
1845,10153
1834,10154
1789,10155
1821,10156
1855,10157
1965,10158
1978,10159
1968,10160
1939,10161
1812,10162
1896,10163
1962,10164
2007,10165
2078,10166
2061,10167
2103,10168
2060,10169
2000,10170
1936,10171
1853,10172
1837,10173
1829,10174
1811,10175
1841,10176
1827,10177
1815,10178
1885,10179
1940,10180
1959,10181
1979,10182
2021,10183
2187,10184
2225,10185
2201,10186
2133,10187
2026,10188
1959,10189
1862,10190
1822,10191
1848,10192
1908,10193
1895,10194
1901,10195
1895,10196
1982,10197
2015,10198
1981,10199
2056,10200
2265,10201
2416,10202
2350,10203
2282,10204
2193,10205
2140,10206
2124,10207
2112,10208
2183,10209
2092,10210
1985,10211
1880,10212
1746,10213
1711,10214
1816,10215
1933,10216
2034,10217
2053,10218
2172,10219
2120,10220
1999,10221
1928,10222
1861,10223
1767,10224
1760,10225
1721,10226
1783,10227
1912,10228
1959,10229
2071,10230
2134,10231
2135,10232
2184,10233
2426,10234
2380,10235
2317,10236
2163,10237
2016,10238
1803,10239
1626,10240
1615,10241
1712,10242
1776,10243
1772,10244
1737,10245
1712,10246
1736,10247
1773,10248
1848,10249
1857,10250
1883,10251
1976,10252
1976,10253
2010,10254
2020,10255
2089,10256
2120,10257
2091,10258
2091,10259
2064,10260
2032,10261
2017,10262
1953,10263
1940,10264
1932,10265
1907,10266
1966,10267
1984,10268
2010,10269
2035,10270
2032,10271
2049,10272
2059,10273
2194,10274
2298,10275
2365,10276
2355,10277
2217,10278
2129,10279
2096,10280
1957,10281
1779,10282
1685,10283
1663,10284
1689,10285
1791,10286
1855,10287
1902,10288
2019,10289
2092,10290
2136,10291
2161,10292
2130,10293
2105,10294
1992,10295
1948,10296
1880,10297
1855,10298
1817,10299
1845,10300
1845,10301
1847,10302
1961,10303
1968,10304
2012,10305
1995,10306
2107,10307
2134,10308
2127,10309
2109,10310
2086,10311
2004,10312
1989,10313
1996,10314
1987,10315
1832,10316
1752,10317
1745,10318
1737,10319
1775,10320
1815,10321
1844,10322
1907,10323
1939,10324
2008,10325
2028,10326
2046,10327
2045,10328
2016,10329
2005,10330
2048,10331
2043,10332
2048,10333
2115,10334
2079,10335
2192,10336
2326,10337
2349,10338
2259,10339
2232,10340
2160,10341
1968,10342
1832,10343
1716,10344
1651,10345
1662,10346
1733,10347
1770,10348
1837,10349
1890,10350
1995,10351
2155,10352
2171,10353
2289,10354
2271,10355
2199,10356
2095,10357
2016,10358
1916,10359
1889,10360
1931,10361
1967,10362
2015,10363
2036,10364
2029,10365
1998,10366
2047,10367
1962,10368
1959,10369
1999,10370
1979,10371
1931,10372
1897,10373
1852,10374
1802,10375
1789,10376
1816,10377
1911,10378
1997,10379
2154,10380
2209,10381
2184,10382
2130,10383
2034,10384
2010,10385
1940,10386
1906,10387
1917,10388
1943,10389
2027,10390
2134,10391
2202,10392
2228,10393
2159,10394
2059,10395
1963,10396
1893,10397
1805,10398
1798,10399
1839,10400
1933,10401
2182,10402
2240,10403
2126,10404
2030,10405
1954,10406
1872,10407
1868,10408
1859,10409
1914,10410
1930,10411
1931,10412
2018,10413
2082,10414
2051,10415
1992,10416
1982,10417
1935,10418
1896,10419
1878,10420
1889,10421
1888,10422
1953,10423
1983,10424
2016,10425
2117,10426
2095,10427
2080,10428
2046,10429
1957,10430
1907,10431
1860,10432
1840,10433
1905,10434
1952,10435
1961,10436
1957,10437
1973,10438
2008,10439
1952,10440
1965,10441
2017,10442
2043,10443
2069,10444
2046,10445
2052,10446
2039,10447
2021,10448
1980,10449
1946,10450
1956,10451
2023,10452
2064,10453
2101,10454
2118,10455
2154,10456
2240,10457
2288,10458
2242,10459
2131,10460
1966,10461
1761,10462
1689,10463
1695,10464
1702,10465
1812,10466
1873,10467
1912,10468
1962,10469
1952,10470
2019,10471
2092,10472
2140,10473
2203,10474
2224,10475
2257,10476
2209,10477
2236,10478
2114,10479
2021,10480
1945,10481
1920,10482
1874,10483
1920,10484
1942,10485
1952,10486
1897,10487
1868,10488
1821,10489
1859,10490
1877,10491
1906,10492
1919,10493
1928,10494
1895,10495
1902,10496
1921,10497
2007,10498
2062,10499
2115,10500
2166,10501
2213,10502
2193,10503
2069,10504
2067,10505
2053,10506
2000,10507
1923,10508
1956,10509
1912,10510
1874,10511
1828,10512
1832,10513
1762,10514
1776,10515
1882,10516
1919,10517
1956,10518
1986,10519
2074,10520
2152,10521
2196,10522
2214,10523
2176,10524
2116,10525
2048,10526
2012,10527
2038,10528
1946,10529
1832,10530
1850,10531
1908,10532
1908,10533
1984,10534
2012,10535
2011,10536
2087,10537
2160,10538
2209,10539
2213,10540
2232,10541
2209,10542
2195,10543
2069,10544
1971,10545
1792,10546
1692,10547
1643,10548
1712,10549
1727,10550
1776,10551
1884,10552
1902,10553
1981,10554
2006,10555
2008,10556
2117,10557
2242,10558
2262,10559
2175,10560
2107,10561
2024,10562
1916,10563
1858,10564
1819,10565
1791,10566
1777,10567
1852,10568
1965,10569
2032,10570
2063,10571
2148,10572
2174,10573
2253,10574
2227,10575
2213,10576
2144,10577
2027,10578
1922,10579
1814,10580
1760,10581
1714,10582
1703,10583
1791,10584
1909,10585
1966,10586
1992,10587
2018,10588
2015,10589
2056,10590
2065,10591
2083,10592
2057,10593
2023,10594
1968,10595
1908,10596
1855,10597
1834,10598
1809,10599
1862,10600
1888,10601
1984,10602
2041,10603
2063,10604
2084,10605
2118,10606
2070,10607
2058,10608
2049,10609
2079,10610
2102,10611
2112,10612
2098,10613
2035,10614
1996,10615
1929,10616
1904,10617
1830,10618
1803,10619
1796,10620
1830,10621
1869,10622
1936,10623
1967,10624
2055,10625
2073,10626
2055,10627
2008,10628
1977,10629
2056,10630
2159,10631
2216,10632
2195,10633
2166,10634
2088,10635
2033,10636
1957,10637
1924,10638
1831,10639
1807,10640
1788,10641
1730,10642
1732,10643
1788,10644
1835,10645
1915,10646
1932,10647
1937,10648
2016,10649
1977,10650
1974,10651
1951,10652
1992,10653
2012,10654
2023,10655
2016,10656
2050,10657
2077,10658
2141,10659
2129,10660
2040,10661
1971,10662
1855,10663
1900,10664
1953,10665
1956,10666
2000,10667
1996,10668
1951,10669
1930,10670
1947,10671
1966,10672
1927,10673
1954,10674
1972,10675
1935,10676
1989,10677
2005,10678
2018,10679
1990,10680
2004,10681
2040,10682
2064,10683
2063,10684
2041,10685
1971,10686
1968,10687
1963,10688
1996,10689
2007,10690
2045,10691
1996,10692
1955,10693
1942,10694
2005,10695
1989,10696
1991,10697
2031,10698
2041,10699
2019,10700
1980,10701
1959,10702
1949,10703
1977,10704
2015,10705
2067,10706
2194,10707
2176,10708
2141,10709
2049,10710
1974,10711
1918,10712
1938,10713
1965,10714
2061,10715
2091,10716
2070,10717
1998,10718
1937,10719
1785,10720
1738,10721
1817,10722
1888,10723
1932,10724
1925,10725
1974,10726
2004,10727
1952,10728
1947,10729
1949,10730
1957,10731
1999,10732
2050,10733
2035,10734
2032,10735
2063,10736
2073,10737
2087,10738
2086,10739
2071,10740
2023,10741
1992,10742
2018,10743
2089,10744
2154,10745
2118,10746
2079,10747
1999,10748
1890,10749
1782,10750
1771,10751
1771,10752
1789,10753
1838,10754
1840,10755
1839,10756
1940,10757
1969,10758
1999,10759
2000,10760
2035,10761
2105,10762
2154,10763
2146,10764
2078,10765
2024,10766
2046,10767
2005,10768
2048,10769
2051,10770
2038,10771
2090,10772
2112,10773
2079,10774
2086,10775
2016,10776
1977,10777
1976,10778
1947,10779
1854,10780
1907,10781
1872,10782
1863,10783
1856,10784
1893,10785
1949,10786
2016,10787
2019,10788
2072,10789
2060,10790
2100,10791
2207,10792
2348,10793
2315,10794
2331,10795
2245,10796
2107,10797
1956,10798
1784,10799
1653,10800
1640,10801
1702,10802
1787,10803
1867,10804
1957,10805
2013,10806
2022,10807
2114,10808
2109,10809
2145,10810
2148,10811
2081,10812
2016,10813
1965,10814
1929,10815
1872,10816
1824,10817
1741,10818
1824,10819
1877,10820
1960,10821
2039,10822
2037,10823
2053,10824
2109,10825
2169,10826
2132,10827
2141,10828
2059,10829
2029,10830
2008,10831
1989,10832
1966,10833
1929,10834
1886,10835
1867,10836
1858,10837
1861,10838
1853,10839
1900,10840
1931,10841
1986,10842
2040,10843
2100,10844
2095,10845
2096,10846
2097,10847
2082,10848
2063,10849
2120,10850
2086,10851
2093,10852
2038,10853
1994,10854
1968,10855
1972,10856
1978,10857
1983,10858
2021,10859
1980,10860
1928,10861
1876,10862
1870,10863
1863,10864
1848,10865
1887,10866
1993,10867
2012,10868
2056,10869
2033,10870
2065,10871
2013,10872
2052,10873
2113,10874
2158,10875
2204,10876
2092,10877
2072,10878
1984,10879
2038,10880
2054,10881
2100,10882
2057,10883
1985,10884
1971,10885
1972,10886
1944,10887
1985,10888
1976,10889
1904,10890
2015,10891
2116,10892
2077,10893
2155,10894
2148,10895
2159,10896
2108,10897
2073,10898
1972,10899
1878,10900
1811,10901
1812,10902
1842,10903
1863,10904
1824,10905
1833,10906
1859,10907
1848,10908
1882,10909
1904,10910
1897,10911
1899,10912
1903,10913
1938,10914
1936,10915
2008,10916
2003,10917
2050,10918
2051,10919
2095,10920
2134,10921
2100,10922
2075,10923
2040,10924
1987,10925
1951,10926
1977,10927
1957,10928
1957,10929
1983,10930
2010,10931
2024,10932
2124,10933
2206,10934
2154,10935
2075,10936
2020,10937
1952,10938
1908,10939
1962,10940
2050,10941
2022,10942
2045,10943
1982,10944
1933,10945
1952,10946
1985,10947
2027,10948
2048,10949
2130,10950
2151,10951
2146,10952
2098,10953
2038,10954
1988,10955
1911,10956
1882,10957
1829,10958
1770,10959
1809,10960
1806,10961
1928,10962
2012,10963
2010,10964
2037,10965
2053,10966
2020,10967
1990,10968
2003,10969
2087,10970
2185,10971
2213,10972
2143,10973
2064,10974
1962,10975
1871,10976
1985,10977
2073,10978
2092,10979
2066,10980
2016,10981
1996,10982
1886,10983
1783,10984
1798,10985
1850,10986
1977,10987
2061,10988
2103,10989
2152,10990
2228,10991
2231,10992
2172,10993
2098,10994
2001,10995
1977,10996
2016,10997
1966,10998
1940,10999
1923,11000
1837,11001
1887,11002
1894,11003
1884,11004
1938,11005
1955,11006
1999,11007
1992,11008
1998,11009
2046,11010
2105,11011
2126,11012
2111,11013
2070,11014
2015,11015
1955,11016
1915,11017
1933,11018
2005,11019
2044,11020
2047,11021
2080,11022
2092,11023
2064,11024
2055,11025
2036,11026
2036,11027
1975,11028
1956,11029
1924,11030
1966,11031
2040,11032
2103,11033
2086,11034
2115,11035
2160,11036
2126,11037
2048,11038
1982,11039
1940,11040
1915,11041
1896,11042
1948,11043
1962,11044
1966,11045
1906,11046
1911,11047
1952,11048
1963,11049
1963,11050
1927,11051
1952,11052
1947,11053
1966,11054
1995,11055
1979,11056
1960,11057
1960,11058
1966,11059
1995,11060
2002,11061
2037,11062
2123,11063
2170,11064
2237,11065
2151,11066
2096,11067
2132,11068
2146,11069
2073,11070
2039,11071
2087,11072
2049,11073
2048,11074
1948,11075
1902,11076
1935,11077
1924,11078
1908,11079
1877,11080
1889,11081
1860,11082
1880,11083
1848,11084
1842,11085
1923,11086
1984,11087
2027,11088
2136,11089
2252,11090
2258,11091
2212,11092
2113,11093
2026,11094
1922,11095
1866,11096
1908,11097
1833,11098
1875,11099
1982,11100
1978,11101
1977,11102
2032,11103
2004,11104
1991,11105
1985,11106
1983,11107
2051,11108
2037,11109
2037,11110
2059,11111
2064,11112
2062,11113
1993,11114
1971,11115
2001,11116
2065,11117
1986,11118
1943,11119
1973,11120
1969,11121
1951,11122
1905,11123
1921,11124
1934,11125
1988,11126
2038,11127
2065,11128
2054,11129
2049,11130
2036,11131
1949,11132
1991,11133
1963,11134
1949,11135
1912,11136
1963,11137
1967,11138
1947,11139
2007,11140
1963,11141
1958,11142
1969,11143
2036,11144
2058,11145
2077,11146
2095,11147
2098,11148
2102,11149
2127,11150
2082,11151
2092,11152
2026,11153
2033,11154
1976,11155
1890,11156
1848,11157
1781,11158
1802,11159
1915,11160
2016,11161
2086,11162
2146,11163
2212,11164
2245,11165
2187,11166
2077,11167
2018,11168
1970,11169
1919,11170
1959,11171
1966,11172
1949,11173
1994,11174
2020,11175
1959,11176
1890,11177
1826,11178
1813,11179
1814,11180
1861,11181
1927,11182
2057,11183
2091,11184
2070,11185
2059,11186
2035,11187
2052,11188
2143,11189
2257,11190
2317,11191
2352,11192
2192,11193
1970,11194
1773,11195
1611,11196
1567,11197
1797,11198
2128,11199
2242,11200
2158,11201
2086,11202
2040,11203
2002,11204
1959,11205
1871,11206
1856,11207
1850,11208
1941,11209
1928,11210
1960,11211
1976,11212
1983,11213
2046,11214
2106,11215
2173,11216
2140,11217
2128,11218
2064,11219
2025,11220
1994,11221
2003,11222
2000,11223
2036,11224
2041,11225
2008,11226
1926,11227
1866,11228
1886,11229
1904,11230
1911,11231
1899,11232
1982,11233
2028,11234
2016,11235
1979,11236
1929,11237
1875,11238
1924,11239
1960,11240
2014,11241
2145,11242
2227,11243
2307,11244
2365,11245
2365,11246
2329,11247
2335,11248
2253,11249
2073,11250
1942,11251
1717,11252
1724,11253
1716,11254
1727,11255
1734,11256
1734,11257
1816,11258
1842,11259
1886,11260
1918,11261
1952,11262
1973,11263
2010,11264
2052,11265
2096,11266
2144,11267
2093,11268
2097,11269
2048,11270
1941,11271
1927,11272
1961,11273
1918,11274
1911,11275
2008,11276
2071,11277
2094,11278
2052,11279
2013,11280
1962,11281
1947,11282
2132,11283
2298,11284
2285,11285
2211,11286
2158,11287
2048,11288
1984,11289
2052,11290
2040,11291
2023,11292
2060,11293
2044,11294
1884,11295
1777,11296
1707,11297
1628,11298
1809,11299
1946,11300
2003,11301
1984,11302
1985,11303
1956,11304
2048,11305
2147,11306
2168,11307
2159,11308
2104,11309
2010,11310
2001,11311
1953,11312
1922,11313
1902,11314
1930,11315
1989,11316
2038,11317
2166,11318
2169,11319
2110,11320
2008,11321
1917,11322
1855,11323
1863,11324
1955,11325
2069,11326
2100,11327
2100,11328
2063,11329
2052,11330
1989,11331
1988,11332
2061,11333
2030,11334
1972,11335
1946,11336
1923,11337
1951,11338
1988,11339
2016,11340
2027,11341
2001,11342
1955,11343
1939,11344
1896,11345
1848,11346
1862,11347
1934,11348
1952,11349
1990,11350
2099,11351
2137,11352
2192,11353
2221,11354
2269,11355
2208,11356
2115,11357
2064,11358
1913,11359
1835,11360
1670,11361
1677,11362
1756,11363
1860,11364
1978,11365
1995,11366
2016,11367
2050,11368
2048,11369
2091,11370
2153,11371
2139,11372
2182,11373
2187,11374
2136,11375
2052,11376
1978,11377
1944,11378
1960,11379
2083,11380
2088,11381
2061,11382
1941,11383
1916,11384
1993,11385
2051,11386
2083,11387
2038,11388
2038,11389
1990,11390
1880,11391
1809,11392
1767,11393
1792,11394
1804,11395
1858,11396
1884,11397
1896,11398
1891,11399
1961,11400
1976,11401
1954,11402
1965,11403
1961,11404
2004,11405
2048,11406
2099,11407
2122,11408
2149,11409
2180,11410
2155,11411
2086,11412
2062,11413
1963,11414
1908,11415
1891,11416
1932,11417
1984,11418
2010,11419
2073,11420
2066,11421
2112,11422
2093,11423
2075,11424
1991,11425
1928,11426
1943,11427
1984,11428
2048,11429
2112,11430
2174,11431
2203,11432
2121,11433
1978,11434
1872,11435
1776,11436
1738,11437
1682,11438
1744,11439
1760,11440
1900,11441
2201,11442
2351,11443
2359,11444
2290,11445
2187,11446
2040,11447
1908,11448
1815,11449
1802,11450
1842,11451
1825,11452
1836,11453
1872,11454
1906,11455
1963,11456
2032,11457
2094,11458
2219,11459
2167,11460
2191,11461
2088,11462
2102,11463
2081,11464
2021,11465
1920,11466
1888,11467
1888,11468
1888,11469
1860,11470
1870,11471
1887,11472
1900,11473
1902,11474
1903,11475
1940,11476
2043,11477
2247,11478
2307,11479
2270,11480
2190,11481
2078,11482
1986,11483
1870,11484
1823,11485
1880,11486
1990,11487
2051,11488
2055,11489
2044,11490
2080,11491
2061,11492
2084,11493
2040,11494
1996,11495
1973,11496
1981,11497
1952,11498
1895,11499
1878,11500
1897,11501
1954,11502
1984,11503
1981,11504
2014,11505
2030,11506
2044,11507
2007,11508
2025,11509
2024,11510
1995,11511
1935,11512
1921,11513
1874,11514
1862,11515
1871,11516
1858,11517
1900,11518
1957,11519
1985,11520
2065,11521
2085,11522
2086,11523
2028,11524
2026,11525
2033,11526
2076,11527
2080,11528
2084,11529
2169,11530
2146,11531
2082,11532
2090,11533
2042,11534
2007,11535
1944,11536
1886,11537
1904,11538
1897,11539
1902,11540
2011,11541
2047,11542
1997,11543
1983,11544
2080,11545
2251,11546
2359,11547
2329,11548
2272,11549
2181,11550
2048,11551
1956,11552
1874,11553
1856,11554
1761,11555
1777,11556
1832,11557
1816,11558
1853,11559
1917,11560
1944,11561
1953,11562
1932,11563
1921,11564
1918,11565
1932,11566
1936,11567
1941,11568
2011,11569
2079,11570
2169,11571
2257,11572
2189,11573
2146,11574
2097,11575
2004,11576
1893,11577
1775,11578
1762,11579
1810,11580
1955,11581
2083,11582
2122,11583
2154,11584
2117,11585
2070,11586
1991,11587
1914,11588
1867,11589
1908,11590
1884,11591
1921,11592
1970,11593
1959,11594
1935,11595
1935,11596
1899,11597
1920,11598
1977,11599
1996,11600
2134,11601
2108,11602
2104,11603
2101,11604
2023,11605
1906,11606
1909,11607
1906,11608
1961,11609
2017,11610
2042,11611
2079,11612
2148,11613
2163,11614
2115,11615
2040,11616
2020,11617
1991,11618
2059,11619
2110,11620
2087,11621
2078,11622
2022,11623
1929,11624
1911,11625
1904,11626
1951,11627
1940,11628
1900,11629
1884,11630
1842,11631
1863,11632
1855,11633
1906,11634
1977,11635
2015,11636
1986,11637
1985,11638
1947,11639
1947,11640
1974,11641
2076,11642
2126,11643
2171,11644
2174,11645
2141,11646
2059,11647
2081,11648
2032,11649
1988,11650
1998,11651
1945,11652
1938,11653
1922,11654
1885,11655
1869,11656
1922,11657
1984,11658
2044,11659
2091,11660
2143,11661
2113,11662
2047,11663
1936,11664
1958,11665
1986,11666
2030,11667
2058,11668
2040,11669
1987,11670
1970,11671
1952,11672
1882,11673
1848,11674
1816,11675
1827,11676
1866,11677
1886,11678
1921,11679
1944,11680
1979,11681
1972,11682
1976,11683
1935,11684
1924,11685
1917,11686
1927,11687
1979,11688
2027,11689
2080,11690
2094,11691
2087,11692
2039,11693
2003,11694
2006,11695
1984,11696
1928,11697
1932,11698
1954,11699
1954,11700
1943,11701
1960,11702
1972,11703
1976,11704
1994,11705
2022,11706
2041,11707
2120,11708
2168,11709
2151,11710
2114,11711
2048,11712
1994,11713
1990,11714
1971,11715
1959,11716
1968,11717
1965,11718
1981,11719
1966,11720
1971,11721
1973,11722
1961,11723
1955,11724
1960,11725
1937,11726
1955,11727
1967,11728
1980,11729
2008,11730
2003,11731
2059,11732
2056,11733
2066,11734
2070,11735
2062,11736
2064,11737
2026,11738
2009,11739
2008,11740
2001,11741
2011,11742
1985,11743
1938,11744
1944,11745
2037,11746
2170,11747
2196,11748
2140,11749
2102,11750
2132,11751
2167,11752
2120,11753
2054,11754
1988,11755
1895,11756
1776,11757
1734,11758
1711,11759
1783,11760
1998,11761
2062,11762
2022,11763
1960,11764
1919,11765
1884,11766
1895,11767
1897,11768
1865,11769
1984,11770
1998,11771
2002,11772
2031,11773
2014,11774
2020,11775
2017,11776
2030,11777
1992,11778
1976,11779
2000,11780
1954,11781
1920,11782
1972,11783
2020,11784
2050,11785
2061,11786
2067,11787
2064,11788
2088,11789
2100,11790
2049,11791
2011,11792
1936,11793
1914,11794
1848,11795
1854,11796
1885,11797
1858,11798
1849,11799
1895,11800
1986,11801
2026,11802
2033,11803
2056,11804
2089,11805
2123,11806
2148,11807
2118,11808
2080,11809
2032,11810
2022,11811
2068,11812
2148,11813
2191,11814
2255,11815
2272,11816
2198,11817
2102,11818
1999,11819
1931,11820
1830,11821
1842,11822
1848,11823
1919,11824
1958,11825
1982,11826
1940,11827
1926,11828
1983,11829
2072,11830
2056,11831
2044,11832
2020,11833
1896,11834
1800,11835
1860,11836
1844,11837
1848,11838
1879,11839
1924,11840
1947,11841
1981,11842
1954,11843
1957,11844
1993,11845
1948,11846
1984,11847
1951,11848
2015,11849
2000,11850
1994,11851
1965,11852
1993,11853
2064,11854
2110,11855
2111,11856
2113,11857
2045,11858
1966,11859
1902,11860
1940,11861
1996,11862
2048,11863
2014,11864
1988,11865
1943,11866
1858,11867
1883,11868
1876,11869
1976,11870
2010,11871
2046,11872
2018,11873
2065,11874
2070,11875
1989,11876
2016,11877
1989,11878
1998,11879
1988,11880
2013,11881
1995,11882
1953,11883
1966,11884
1951,11885
2053,11886
2147,11887
2186,11888
2123,11889
2017,11890
2016,11891
2058,11892
2004,11893
1906,11894
1891,11895
1914,11896
1897,11897
1944,11898
1932,11899
1927,11900
1872,11901
1904,11902
1909,11903
1932,11904
1991,11905
1991,11906
2012,11907
2069,11908
2009,11909
2026,11910
2035,11911
2006,11912
2002,11913
2007,11914
2052,11915
2196,11916
2247,11917
2191,11918
2132,11919
2011,11920
1863,11921
1784,11922
1808,11923
1804,11924
1853,11925
1851,11926
1887,11927
1895,11928
1964,11929
2036,11930
2103,11931
2134,11932
2164,11933
2120,11934
2045,11935
1983,11936
1946,11937
1984,11938
1920,11939
1908,11940
1882,11941
1861,11942
1903,11943
1951,11944
2000,11945
2062,11946
2083,11947
2054,11948
1995,11949
2018,11950
1970,11951
1983,11952
2007,11953
2006,11954
2002,11955
1970,11956
1919,11957
1930,11958
1995,11959
2030,11960
2045,11961
2046,11962
2021,11963
1986,11964
1912,11965
1945,11966
1927,11967
1954,11968
1952,11969
1955,11970
1952,11971
1961,11972
1941,11973
1968,11974
1991,11975
1976,11976
1935,11977
1979,11978
2024,11979
2027,11980
2011,11981
1998,11982
2013,11983
2023,11984
2089,11985
2112,11986
2132,11987
2059,11988
2035,11989
2000,11990
1970,11991
1928,11992
1920,11993
1866,11994
1837,11995
1861,11996
1928,11997
1994,11998
2015,11999
2046,12000
2032,12001
2039,12002
2029,12003
2013,12004
1979,12005
2006,12006
2027,12007
2024,12008
2022,12009
2127,12010
2155,12011
2195,12012
2127,12013
2094,12014
1978,12015
1919,12016
1874,12017
1842,12018
1843,12019
1893,12020
1896,12021
1974,12022
2030,12023
2088,12024
2097,12025
2103,12026
2119,12027
2025,12028
2029,12029
2000,12030
1984,12031
2068,12032
2096,12033
2050,12034
1967,12035
1897,12036
1917,12037
1901,12038
1917,12039
1919,12040
1979,12041
2016,12042
2007,12043
1996,12044
2026,12045
1998,12046
2018,12047
2000,12048
1941,12049
1956,12050
1944,12051
1975,12052
1986,12053
1979,12054
1971,12055
1966,12056
1961,12057
1886,12058
1870,12059
1853,12060
1912,12061
1947,12062
1977,12063
2003,12064
2004,12065
1987,12066
1972,12067
2010,12068
2031,12069
2011,12070
2014,12071
2014,12072
2075,12073
2094,12074
2094,12075
2055,12076
1993,12077
1944,12078
1906,12079
1849,12080
1863,12081
1875,12082
1970,12083
1989,12084
2016,12085
2028,12086
2062,12087
2133,12088
2208,12089
2229,12090
2236,12091
2129,12092
2063,12093
1975,12094
1884,12095
1815,12096
1824,12097
1897,12098
1890,12099
1920,12100
1967,12101
2019,12102
2048,12103
2059,12104
2020,12105
2025,12106
1990,12107
1992,12108
1980,12109
2000,12110
1978,12111
1993,12112
1963,12113
1924,12114
1932,12115
1960,12116
1935,12117
1959,12118
1943,12119
1945,12120
1943,12121
1961,12122
1974,12123
2037,12124
2022,12125
2010,12126
2074,12127
2227,12128
2263,12129
2243,12130
2188,12131
2134,12132
2086,12133
1958,12134
1906,12135
1847,12136
1813,12137
1835,12138
1862,12139
1871,12140
1911,12141
1978,12142
2025,12143
2035,12144
2055,12145
2021,12146
2036,12147
1986,12148
1967,12149
1976,12150
1960,12151
2031,12152
2082,12153
2067,12154
2052,12155
2068,12156
2051,12157
2019,12158
2025,12159
2016,12160
1939,12161
1886,12162
1892,12163
1885,12164
1975,12165
2023,12166
2010,12167
2013,12168
2000,12169
1962,12170
1931,12171
1935,12172
1924,12173
1962,12174
2011,12175
2000,12176
2124,12177
2127,12178
2091,12179
2019,12180
1936,12181
1890,12182
1856,12183
1929,12184
2062,12185
2072,12186
2067,12187
2048,12188
2031,12189
1980,12190
1909,12191
1895,12192
1920,12193
1966,12194
1959,12195
1975,12196
1970,12197
2104,12198
2256,12199
2256,12200
2207,12201
2175,12202
2073,12203
1972,12204
1847,12205
1849,12206
1920,12207
1964,12208
1968,12209
1936,12210
1924,12211
1895,12212
1898,12213
1919,12214
1978,12215
2048,12216
2088,12217
2071,12218
2019,12219
2011,12220
1977,12221
1965,12222
1981,12223
1997,12224
2081,12225
2123,12226
2142,12227
2131,12228
2065,12229
2024,12230
1928,12231
1894,12232
1846,12233
1831,12234
1847,12235
1912,12236
1911,12237
1878,12238
1870,12239
1901,12240
1991,12241
2044,12242
2086,12243
2059,12244
2129,12245
2080,12246
2061,12247
2007,12248
1947,12249
1955,12250
1935,12251
1934,12252
1929,12253
1927,12254
1900,12255
1937,12256
1965,12257
1998,12258
2056,12259
2155,12260
2260,12261
2424,12262
2426,12263
2335,12264
2192,12265
2129,12266
2069,12267
1888,12268
1812,12269
1711,12270
1777,12271
1809,12272
1939,12273
1969,12274
1982,12275
1903,12276
1867,12277
1809,12278
1802,12279
1767,12280
1863,12281
1932,12282
1989,12283
2048,12284
2102,12285
2115,12286
2070,12287
2049,12288
2008,12289
2057,12290
2090,12291
2052,12292
2143,12293
2248,12294
2292,12295
2283,12296
2156,12297
2051,12298
1907,12299
1886,12300
1792,12301
1720,12302
1783,12303
1860,12304
1855,12305
1891,12306
1920,12307
1910,12308
1921,12309
1933,12310
1971,12311
1974,12312
2001,12313
1999,12314
2062,12315
2144,12316
2234,12317
2228,12318
2150,12319
2101,12320
2048,12321
1988,12322
1966,12323
1917,12324
1920,12325
2084,12326
2123,12327
2030,12328
1968,12329
1919,12330
1913,12331
1941,12332
1972,12333
1913,12334
1928,12335
1895,12336
1965,12337
1988,12338
2053,12339
2080,12340
2113,12341
2099,12342
2120,12343
2076,12344
2127,12345
2055,12346
1921,12347
1885,12348
1870,12349
1815,12350
1883,12351
2016,12352
2179,12353
2247,12354
2180,12355
2049,12356
1936,12357
1848,12358
1759,12359
1832,12360
1836,12361
1912,12362
1984,12363
2039,12364
2077,12365
2077,12366
2105,12367
2046,12368
1976,12369
1926,12370
1915,12371
1962,12372
1936,12373
1925,12374
1898,12375
1917,12376
1932,12377
1985,12378
1958,12379
1979,12380
1990,12381
1997,12382
1987,12383
1970,12384
1960,12385
2027,12386
2044,12387
2073,12388
2165,12389
2214,12390
2206,12391
2176,12392
2108,12393
2044,12394
1957,12395
1977,12396
2006,12397
2029,12398
2057,12399
2086,12400
2059,12401
2076,12402
2063,12403
2049,12404
2029,12405
1955,12406
1887,12407
1879,12408
1900,12409
1929,12410
2024,12411
2067,12412
2112,12413
2039,12414
2115,12415
2100,12416
2123,12417
2050,12418
1974,12419
1919,12420
1886,12421
1819,12422
1777,12423
1791,12424
1805,12425
1897,12426
2014,12427
2039,12428
2088,12429
2080,12430
2011,12431
2016,12432
1960,12433
2001,12434
2045,12435
1994,12436
1960,12437
1935,12438
1897,12439
1912,12440
1975,12441
2049,12442
2035,12443
2038,12444
2004,12445
1972,12446
1960,12447
1943,12448
1915,12449
1942,12450
1979,12451
2013,12452
2034,12453
2055,12454
2063,12455
2106,12456
2099,12457
2071,12458
2048,12459
2062,12460
2073,12461
2089,12462
2095,12463
2101,12464
2126,12465
2119,12466
2068,12467
2022,12468
2048,12469
2028,12470
1935,12471
1858,12472
1916,12473
1941,12474
1885,12475
1893,12476
1868,12477
1896,12478
1932,12479
1931,12480
1992,12481
1947,12482
1949,12483
1989,12484
2019,12485
2014,12486
1973,12487
1992,12488
2023,12489
2066,12490
2037,12491
1999,12492
1997,12493
1971,12494
1983,12495
2019,12496
2021,12497
2025,12498
2155,12499
2388,12500
2479,12501
2451,12502
2290,12503
2139,12504
1977,12505
1847,12506
1754,12507
1672,12508
1645,12509
1672,12510
1694,12511
1780,12512
1832,12513
1862,12514
1936,12515
1966,12516
2099,12517
2124,12518
2162,12519
2112,12520
2087,12521
2054,12522
2036,12523
2013,12524
2001,12525
1990,12526
2007,12527
2019,12528
2067,12529
2048,12530
2063,12531
2010,12532
2001,12533
1964,12534
1955,12535
1959,12536
1887,12537
1974,12538
1977,12539
1973,12540
2002,12541
2027,12542
2026,12543
1973,12544
1921,12545
1894,12546
1952,12547
2018,12548
2058,12549
2066,12550
2032,12551
1975,12552
1907,12553
1866,12554
1841,12555
1819,12556
1934,12557
2073,12558
2174,12559
2163,12560
2142,12561
2117,12562
2036,12563
1983,12564
1938,12565
1924,12566
1957,12567
2002,12568
2035,12569
2086,12570
2086,12571
2084,12572
2074,12573
2109,12574
2046,12575
1879,12576
1848,12577
1965,12578
2111,12579
2232,12580
2237,12581
2136,12582
2014,12583
1934,12584
1929,12585
1957,12586
2035,12587
2101,12588
2099,12589
2171,12590
2162,12591
2056,12592
1997,12593
1936,12594
1820,12595
1763,12596
1753,12597
1823,12598
1867,12599
1855,12600
1879,12601
1910,12602
1915,12603
1931,12604
1958,12605
2007,12606
2075,12607
2154,12608
2151,12609
2127,12610
2083,12611
1992,12612
1911,12613
1880,12614
1855,12615
1847,12616
1858,12617
1884,12618
1887,12619
1912,12620
1854,12621
1907,12622
1880,12623
1936,12624
1963,12625
2017,12626
2007,12627
2069,12628
2159,12629
2175,12630
2178,12631
2155,12632
2080,12633
2020,12634
1971,12635
1881,12636
1924,12637
2035,12638
2123,12639
2125,12640
2224,12641
2254,12642
2192,12643
2043,12644
2017,12645
1992,12646
2079,12647
2054,12648
1971,12649
1986,12650
1944,12651
1888,12652
1879,12653
1892,12654
1943,12655
1984,12656
2083,12657
2088,12658
2095,12659
2090,12660
2163,12661
2167,12662
2099,12663
2064,12664
1951,12665
1964,12666
1936,12667
1917,12668
1921,12669
1977,12670
1987,12671
1961,12672
1973,12673
1918,12674
1888,12675
1936,12676
2005,12677
2048,12678
2061,12679
2029,12680
2030,12681
1948,12682
1929,12683
1928,12684
2038,12685
2127,12686
2173,12687
2186,12688
2182,12689
2129,12690
2067,12691
2083,12692
2047,12693
1952,12694
1793,12695
1763,12696
1844,12697
1834,12698
1863,12699
1857,12700
1867,12701
1918,12702
1972,12703
2036,12704
2121,12705
2156,12706
2248,12707
2253,12708
2161,12709
2120,12710
2043,12711
2036,12712
2001,12713
1943,12714
1959,12715
1925,12716
1879,12717
1852,12718
1843,12719
1863,12720
1890,12721
1953,12722
1976,12723
2064,12724
2228,12725
2368,12726
2422,12727
2329,12728
2208,12729
2037,12730
1877,12731
1782,12732
1743,12733
1787,12734
1851,12735
1931,12736
1968,12737
1947,12738
1952,12739
1967,12740
1943,12741
1975,12742
2025,12743
2011,12744
1977,12745
1969,12746
2059,12747
2050,12748
2119,12749
2080,12750
2030,12751
1994,12752
1955,12753
1936,12754
1906,12755
1873,12756
1867,12757
1917,12758
1976,12759
2096,12760
2111,12761
2058,12762
2002,12763
1958,12764
1953,12765
1947,12766
1974,12767
2029,12768
1994,12769
2117,12770
2223,12771
2270,12772
2205,12773
2093,12774
2063,12775
1996,12776
2011,12777
2045,12778
2164,12779
2276,12780
2295,12781
2169,12782
1979,12783
1817,12784
1704,12785
1709,12786
1749,12787
1812,12788
1855,12789
1912,12790
1928,12791
1940,12792
1940,12793
1980,12794
2007,12795
2010,12796
1993,12797
2030,12798
2020,12799
2018,12800
1958,12801
1934,12802
1927,12803
2037,12804
2130,12805
2166,12806
2170,12807
2098,12808
2053,12809
2017,12810
2024,12811
2111,12812
2331,12813
2393,12814
2291,12815
2177,12816
2040,12817
1895,12818
1761,12819
1674,12820
1645,12821
1639,12822
1726,12823
1795,12824
1888,12825
1942,12826
1995,12827
2020,12828
2032,12829
2098,12830
2095,12831
2055,12832
2035,12833
2002,12834
2019,12835
1979,12836
1993,12837
2067,12838
2051,12839
2088,12840
2076,12841
2066,12842
2024,12843
1994,12844
1984,12845
2001,12846
2032,12847
1981,12848
1991,12849
1971,12850
2026,12851
2014,12852
1999,12853
1999,12854
1968,12855
1959,12856
1936,12857
1940,12858
1970,12859
2002,12860
2007,12861
2012,12862
2029,12863
1987,12864
2002,12865
2016,12866
2032,12867
2017,12868
2038,12869
2072,12870
2104,12871
2163,12872
2140,12873
2094,12874
2072,12875
2007,12876
1932,12877
1845,12878
1786,12879
1855,12880
1947,12881
2001,12882
2048,12883
2094,12884
2045,12885
2048,12886
2033,12887
1975,12888
1967,12889
1961,12890
2026,12891
2047,12892
2052,12893
2072,12894
2069,12895
1976,12896
1898,12897
1877,12898
1783,12899
1834,12900
1906,12901
1931,12902
2027,12903
2060,12904
2110,12905
2089,12906
2135,12907
2127,12908
2091,12909
2085,12910
2132,12911
2141,12912
2147,12913
2141,12914
2087,12915
1994,12916
1910,12917
1857,12918
1845,12919
1857,12920
1872,12921
1840,12922
1863,12923
1936,12924
1994,12925
1997,12926
2017,12927
2034,12928
1972,12929
1988,12930
1973,12931
2003,12932
2060,12933
2086,12934
2108,12935
2071,12936
2025,12937
1945,12938
1940,12939
2012,12940
2054,12941
2092,12942
2097,12943
2095,12944
2047,12945
1990,12946
1968,12947
1925,12948
1912,12949
1918,12950
1917,12951
1966,12952
2048,12953
2016,12954
2048,12955
2059,12956
2023,12957
2018,12958
2006,12959
2000,12960
2012,12961
1994,12962
1949,12963
1944,12964
1981,12965
1980,12966
1995,12967
2021,12968
2049,12969
2030,12970
1975,12971
2001,12972
1957,12973
1967,12974
1941,12975
2023,12976
2047,12977
2084,12978
2060,12979
2092,12980
2163,12981
2221,12982
2280,12983
2256,12984
2160,12985
2072,12986
1999,12987
1938,12988
1899,12989
1839,12990
1860,12991
1827,12992
1844,12993
1863,12994
1885,12995
1868,12996
1875,12997
1880,12998
1919,12999
1943,13000
1989,13001
1989,13002
2009,13003
2048,13004
2041,13005
2039,13006
2062,13007
2135,13008
2183,13009
2303,13010
2309,13011
2207,13012
2092,13013
1937,13014
1847,13015
1751,13016
1801,13017
1823,13018
1862,13019
1888,13020
1928,13021
1992,13022
1999,13023
2069,13024
2111,13025
2156,13026
2144,13027
2145,13028
2143,13029
2164,13030
2189,13031
2160,13032
2140,13033
2078,13034
2019,13035
1915,13036
1798,13037
1753,13038
1762,13039
1819,13040
1858,13041
1969,13042
1994,13043
1977,13044
2007,13045
2027,13046
2043,13047
2088,13048
2075,13049
2039,13050
1998,13051
1932,13052
1873,13053
1852,13054
1894,13055
1858,13056
1911,13057
2002,13058
2076,13059
2247,13060
2345,13061
2419,13062
2419,13063
2321,13064
2187,13065
1983,13066
1836,13067
1732,13068
1736,13069
1731,13070
1836,13071
1868,13072
1912,13073
1936,13074
1942,13075
1954,13076
1942,13077
1954,13078
1921,13079
1948,13080
1965,13081
2061,13082
2128,13083
2146,13084
2214,13085
2215,13086
2192,13087
2091,13088
2002,13089
1995,13090
1895,13091
1889,13092
1851,13093
1832,13094
1825,13095
1865,13096
1886,13097
1943,13098
2011,13099
2021,13100
2037,13101
2061,13102
2118,13103
2095,13104
2027,13105
2054,13106
2032,13107
2023,13108
1974,13109
1971,13110
1978,13111
2024,13112
2037,13113
2021,13114
2017,13115
2003,13116
1963,13117
1926,13118
1916,13119
1952,13120
2003,13121
2087,13122
2121,13123
2115,13124
2070,13125
2048,13126
2066,13127
2059,13128
2061,13129
2058,13130
1963,13131
1959,13132
1945,13133
1975,13134
1923,13135
1904,13136
1905,13137
1939,13138
1962,13139
1958,13140
1999,13141
1970,13142
1979,13143
2020,13144
2092,13145
2101,13146
2112,13147
2093,13148
2071,13149
2050,13150
2049,13151
2091,13152
2089,13153
2118,13154
2047,13155
2029,13156
1970,13157
1943,13158
1939,13159
1928,13160
1867,13161
1884,13162
1857,13163
1886,13164
1973,13165
2030,13166
2070,13167
2041,13168
1999,13169
2001,13170
2003,13171
1913,13172
1883,13173
1862,13174
1959,13175
2017,13176
2077,13177
2078,13178
2068,13179
2037,13180
1976,13181
1954,13182
1984,13183
1949,13184
1974,13185
2013,13186
1992,13187
1958,13188
1951,13189
2054,13190
2174,13191
2267,13192
2265,13193
2183,13194
2094,13195
1975,13196
1967,13197
1959,13198
1916,13199
1916,13200
1980,13201
1982,13202
2006,13203
2012,13204
1949,13205
1984,13206
2046,13207
2073,13208
2090,13209
2054,13210
2098,13211
2096,13212
2070,13213
2058,13214
2013,13215
2000,13216
2011,13217
2022,13218
2004,13219
1982,13220
1944,13221
1957,13222
2035,13223
2166,13224
2211,13225
2170,13226
2112,13227
2058,13228
1935,13229
1822,13230
1752,13231
1759,13232
1862,13233
1983,13234
2041,13235
2075,13236
2068,13237
2043,13238
