1927,1362
1897,1363
1877,1364
1886,1365
1875,1366
1870,1367
1889,1368
1901,1369
1948,1370
1957,1371
1961,1372
1996,1373
1998,1374
1997,1375
2000,1376
1969,1377
1960,1378
1969,1379
1945,1380
1905,1381
1897,1382
1896,1383
1896,1384
1857,1385
1866,1386
1884,1387
1849,1388
1891,1389
1915,1390
1937,1391
1916,1392
1937,1393
1980,1394
2002,1395
1973,1396
1951,1397
1948,1398
1960,1399
1950,1400
1912,1401
1911,1402
1883,1403
1894,1404
1884,1405
1893,1406
1875,1407
1881,1408
1880,1409
1917,1410
1938,1411
1956,1412
1963,1413
1968,1414
1987,1415
1970,1416
1938,1417
1955,1418
1951,1419
1929,1420
1920,1421
1893,1422
1865,1423
1891,1424
1893,1425
1881,1426
1907,1427
1910,1428
1904,1429
1925,1430
1920,1431
1951,1432
1991,1433
1994,1434
1990,1435
2006,1436
1992,1437
1977,1438
1968,1439
1927,1440
1932,1441
1904,1442
1904,1443
1911,1444
1860,1445
1877,1446
1889,1447
1863,1448
1894,1449
1930,1450
1932,1451
1951,1452
1943,1453
1986,1454
1988,1455
1969,1456
1940,1457
2000,1458
1964,1459
1931,1460
1943,1461
1906,1462
1887,1463
1875,1464
1873,1465
1893,1466
1882,1467
1898,1468
1889,1469
1910,1470
1955,1471
1967,1472
1959,1473
2008,1474
2006,1475
2010,1476
2007,1477
1982,1478
1963,1479
1968,1480
1929,1481
1917,1482
1883,1483
1912,1484
1896,1485
1913,1486
1877,1487
1865,1488
1892,1489
1894,1490
1918,1491
1934,1492
1970,1493
1937,1494
1988,1495
2000,1496
1971,1497
1986,1498
1954,1499
1957,1500
1930,1501
1911,1502
1891,1503
1898,1504
1885,1505
1919,1506
1919,1507
1905,1508
1932,1509
1973,1510
1935,1511
1975,1512
1996,1513
1975,1514
2008,1515
2015,1516
1996,1517
1976,1518
1941,1519
1898,1520
1888,1521
1888,1522
1882,1523
1876,1524
1849,1525
1848,1526
1859,1527
1879,1528
1906,1529
1927,1530
1914,1531
1975,1532
1987,1533
1995,1534
1985,1535
1985,1536
1992,1537
1971,1538
1939,1539
1953,1540
1917,1541
1927,1542
1891,1543
1887,1544
1861,1545
1903,1546
1921,1547
1916,1548
1930,1549
1934,1550
1947,1551
1958,1552
1968,1553
1976,1554
1987,1555
1970,1556
1942,1557
1932,1558
1920,1559
1939,1560
1920,1561
1897,1562
1905,1563
1886,1564
1848,1565
1874,1566
1907,1567
1904,1568
1911,1569
1935,1570
1957,1571
1969,1572
1983,1573
2000,1574
1989,1575
1996,1576
1996,1577
1972,1578
1954,1579
1913,1580
1930,1581
1928,1582
1925,1583
1887,1584
1890,1585
1872,1586
1883,1587
1870,1588
1903,1589
1911,1590
1911,1591
1961,1592
1952,1593
1984,1594
1953,1595
1967,1596
1990,1597
1992,1598
1948,1599
1945,1600
1936,1601
1926,1602
1911,1603
1890,1604
1890,1605
1901,1606
1880,1607
1934,1608
1945,1609
1949,1610
1952,1611
1960,1612
1983,1613
1982,1614
2033,1615
1992,1616
2011,1617
1963,1618
1968,1619
1964,1620
1933,1621
1897,1622
1894,1623
1880,1624
1890,1625
1896,1626
1905,1627
1888,1628
1894,1629
1932,1630
1918,1631
1917,1632
1966,1633
1983,1634
1958,1635
2007,1636
1991,1637
1984,1638
1971,1639
1949,1640
1904,1641
1904,1642
1887,1643
1904,1644
1899,1645
1889,1646
1884,1647
1897,1648
1914,1649
1925,1650
1935,1651
1970,1652
1999,1653
1975,1654
1989,1655
1998,1656
2004,1657
1978,1658
1965,1659
1939,1660
1920,1661
1893,1662
1889,1663
1916,1664
1911,1665
1845,1666
1905,1667
1903,1668
1939,1669
1937,1670
1929,1671
1979,1672
1984,1673
1986,1674
2028,1675
2006,1676
1974,1677
1989,1678
1957,1679
1954,1680
1904,1681
1901,1682
1887,1683
1888,1684
1868,1685
1881,1686
1905,1687
1882,1688
1936,1689
1931,1690
1933,1691
1913,1692
1935,1693
1976,1694
2000,1695
1991,1696
1987,1697
1960,1698
1963,1699
1927,1700
1946,1701
1950,1702
1916,1703
1907,1704
1879,1705
1882,1706
1846,1707
1851,1708
1894,1709
1898,1710
1959,1711
1950,1712
1975,1713
2007,1714
2014,1715
1972,1716
1994,1717
1964,1718
1960,1719
1959,1720
1930,1721
1896,1722
1903,1723
1909,1724
1881,1725
1872,1726
1914,1727
1903,1728
1899,1729
1944,1730
1967,1731
1946,1732
1981,1733
2010,1734
2020,1735
2003,1736
2002,1737
1957,1738
1942,1739
1932,1740
1922,1741
1925,1742
1848,1743
1863,1744
1906,1745
1881,1746
1891,1747
1905,1748
1929,1749
1913,1750
1945,1751
1943,1752
1978,1753
1971,1754
2007,1755
1987,1756
2000,1757
1967,1758
1978,1759
1962,1760
1948,1761
1924,1762
1908,1763
1917,1764
1912,1765
1924,1766
1891,1767
1911,1768
1923,1769
1942,1770
1957,1771
1979,1772
1999,1773
1974,1774
1986,1775
1965,1776
1936,1777
1914,1778
1907,1779
1910,1780
1900,1781
1904,1782
1878,1783
1871,1784
1905,1785
1870,1786
1869,1787
1867,1788
1908,1789
1939,1790
1942,1791
1967,1792
1974,1793
2000,1794
2010,1795
1968,1796
1980,1797
1994,1798
1943,1799
1951,1800
1923,1801
1950,1802
1915,1803
1908,1804
1905,1805
1905,1806
1930,1807
1931,1808
1952,1809
1966,1810
1980,1811
1971,1812
1988,1813
2003,1814
2017,1815
1994,1816
1989,1817
1985,1818
1959,1819
1946,1820
1914,1821
1866,1822
1904,1823
1880,1824
1860,1825
1875,1826
1886,1827
1905,1828
1939,1829
1936,1830
1980,1831
1976,1832
1984,1833
1971,1834
1974,1835
1980,1836
1971,1837
1986,1838
1944,1839
1968,1840
1936,1841
1924,1842
1902,1843
1905,1844
1891,1845
1883,1846
1878,1847
1877,1848
1932,1849
1909,1850
1942,1851
1961,1852
1952,1853
1996,1854
1995,1855
1967,1856
1973,1857
1968,1858
1963,1859
1927,1860
1930,1861
1931,1862
1899,1863
1886,1864
1885,1865
1907,1866
1904,1867
1903,1868
1940,1869
1912,1870
1934,1871
1984,1872
1989,1873
2000,1874
1984,1875
1994,1876
1985,1877
1973,1878
1989,1879
1944,1880
1911,1881
1920,1882
1907,1883
1903,1884
1878,1885
1888,1886
1927,1887
1895,1888
1946,1889
1971,1890
1976,1891
2013,1892
2006,1893
1999,1894
2017,1895
2023,1896
2015,1897
1972,1898
1945,1899
1930,1900
1892,1901
1905,1902
1881,1903
1880,1904
1901,1905
1882,1906
1867,1907
1890,1908
1912,1909
1884,1910
1919,1911
1914,1912
1956,1913
1955,1914
1968,1915
1957,1916
1976,1917
1972,1918
1921,1919
1940,1920
1936,1921
1891,1922
1892,1923
1894,1924
1885,1925
1920,1926
1891,1927
1888,1928
1936,1929
1917,1930
1964,1931
1988,1932
1976,1933
1973,1934
1979,1935
1981,1936
1994,1937
1976,1938
1979,1939
1960,1940
1932,1941
1915,1942
1916,1943
1928,1944
1858,1945
1870,1946
1907,1947
1916,1948
1930,1949
1938,1950
1981,1951
1961,1952
1970,1953
1967,1954
1986,1955
1999,1956
1978,1957
1992,1958
1953,1959
1962,1960
1944,1961
1883,1962
1929,1963
1905,1964
1900,1965
1880,1966
1900,1967
1923,1968
1915,1969
1929,1970
1935,1971
1956,1972
1950,1973
1987,1974
1984,1975
1996,1976
2003,1977
1988,1978
1941,1979
1936,1980
1928,1981
1902,1982
1881,1983
1900,1984
1880,1985
1898,1986
1892,1987
1897,1988
1882,1989
1904,1990
1949,1991
1956,1992
1964,1993
1942,1994
1979,1995
2006,1996
1970,1997
1962,1998
1918,1999
1935,2000
1929,2001
1908,2002
1900,2003
1891,2004
1889,2005
1890,2006
1865,2007
1914,2008
1908,2009
1895,2010
1964,2011
1986,2012
1998,2013
2004,2014
1985,2015
1990,2016
1995,2017
1979,2018
1987,2019
1969,2020
1940,2021
1918,2022
1918,2023
1911,2024
1907,2025
1896,2026
1929,2027
1900,2028
1896,2029
1922,2030
1930,2031
1944,2032
1953,2033
1964,2034
1957,2035
1996,2036
1968,2037
1960,2038
1952,2039
1938,2040
1943,2041
1921,2042
1897,2043
1883,2044
1900,2045
1923,2046
1931,2047
1947,2048
1958,2049
1962,2050
1980,2051
2006,2052
1988,2053
1976,2054
1990,2055
1985,2056
1976,2057
1965,2058
1932,2059
1963,2060
1927,2061
1928,2062
1932,2063
1947,2064
1916,2065
1893,2066
1909,2067
1915,2068
1919,2069
1895,2070
1903,2071
1913,2072
1949,2073
1960,2074
1942,2075
1986,2076
1994,2077
1985,2078
1932,2079
1942,2080
1943,2081
1911,2082
1908,2083
1902,2084
1898,2085
1874,2086
1887,2087
1913,2088
1904,2089
1907,2090
1920,2091
1935,2092
1964,2093
1935,2094
1982,2095
1975,2096
1971,2097
1975,2098
1960,2099
1947,2100
1936,2101
1903,2102
1899,2103
1884,2104
1864,2105
1892,2106
1877,2107
1863,2108
1919,2109
1956,2110
1945,2111
1952,2112
1981,2113
2010,2114
2048,2115
2044,2116
2051,2117
2005,2118
2006,2119
1975,2120
1911,2121
1930,2122
1912,2123
1886,2124
1872,2125
1860,2126
1855,2127
1891,2128
1916,2129
1912,2130
1994,2131
1986,2132
1987,2133
1970,2134
1972,2135
1977,2136
1957,2137
1956,2138
1965,2139
1913,2140
1924,2141
1895,2142
1886,2143
1872,2144
1880,2145
1852,2146
1859,2147
1864,2148
1908,2149
1952,2150
1955,2151
1951,2152
1987,2153
2013,2154
1995,2155
2033,2156
1992,2157
2005,2158
1975,2159
1994,2160
1904,2161
1917,2162
1905,2163
1903,2164
1912,2165
1872,2166
1904,2167
1893,2168
1883,2169
1945,2170
1911,2171
1969,2172
1963,2173
1968,2174
1999,2175
1981,2176
2003,2177
1947,2178
1958,2179
1940,2180
1927,2181
1914,2182
1926,2183
1927,2184
1911,2185
1903,2186
1900,2187
1887,2188
1917,2189
1958,2190
1911,2191
1939,2192
1963,2193
1992,2194
2007,2195
1978,2196
1990,2197
1954,2198
1976,2199
1930,2200
1932,2201
1918,2202
1915,2203
1851,2204
1894,2205
1885,2206
1890,2207
1904,2208
1923,2209
1919,2210
1928,2211
1968,2212
2001,2213
1996,2214
2005,2215
1980,2216
1999,2217
1981,2218
1949,2219
1961,2220
1941,2221
1907,2222
1919,2223
1914,2224
1902,2225
1883,2226
1877,2227
1908,2228
1914,2229
1891,2230
1953,2231
1976,2232
1972,2233
1961,2234
1988,2235
2006,2236
1989,2237
1998,2238
1976,2239
1937,2240
1960,2241
1921,2242
1953,2243
1928,2244
1912,2245
1874,2246
1904,2247
1924,2248
1926,2249
1917,2250
1946,2251
1955,2252
1947,2253
1975,2254
2000,2255
2011,2256
1976,2257
1962,2258
1980,2259
1931,2260
1935,2261
1915,2262
1943,2263
1930,2264
1883,2265
1872,2266
1889,2267
1898,2268
1927,2269
1942,2270
1954,2271
1948,2272
1971,2273
1965,2274
2000,2275
2013,2276
1995,2277
1979,2278
1972,2279
1972,2280
1931,2281
1923,2282
1892,2283
1868,2284
1904,2285
1922,2286
1927,2287
1919,2288
1934,2289
1954,2290
1944,2291
1950,2292
1975,2293
2007,2294
1995,2295
2000,2296
2021,2297
1966,2298
1961,2299
1984,2300
1960,2301
1951,2302
1913,2303
1932,2304
1910,2305
1893,2306
1911,2307
1928,2308
1954,2309
1930,2310
1943,2311
1975,2312
1974,2313
2000,2314
1992,2315
1969,2316
1978,2317
1984,2318
1966,2319
1951,2320
1912,2321
1920,2322
1895,2323
1902,2324
1891,2325
1878,2326
1876,2327
1916,2328
1928,2329
1902,2330
1949,2331
1977,2332
1975,2333
1979,2334
2014,2335
2011,2336
1975,2337
1942,2338
1964,2339
1978,2340
1950,2341
1916,2342
1928,2343
1910,2344
1904,2345
1906,2346
1908,2347
1899,2348
1904,2349
1934,2350
1937,2351
1943,2352
1941,2353
1988,2354
1965,2355
1984,2356
1991,2357
2013,2358
1972,2359
1962,2360
1914,2361
1947,2362
1944,2363
1904,2364
1903,2365
1892,2366
1901,2367
1918,2368
1936,2369
1938,2370
1958,2371
1979,2372
1983,2373
2026,2374
2007,2375
2015,2376
1985,2377
1968,2378
1988,2379
1947,2380
1968,2381
1953,2382
1876,2383
1889,2384
1887,2385
1917,2386
1912,2387
1919,2388
1905,2389
1953,2390
1953,2391
1996,2392
1993,2393
1984,2394
2016,2395
2008,2396
1984,2397
1994,2398
1973,2399
1934,2400
1931,2401
1941,2402
1937,2403
1891,2404
1888,2405
1900,2406
1867,2407
1881,2408
1925,2409
1934,2410
1935,2411
1957,2412
1954,2413
1990,2414
1977,2415
1953,2416
1952,2417
1969,2418
1962,2419
1944,2420
1936,2421
1936,2422
1921,2423
1907,2424
1896,2425
1912,2426
1902,2427
1896,2428
1910,2429
1934,2430
1941,2431
1981,2432
2008,2433
1994,2434
1973,2435
2031,2436
1980,2437
1965,2438
1978,2439
1955,2440
1943,2441
1922,2442
1899,2443
1904,2444
1895,2445
1895,2446
1898,2447
1903,2448
1890,2449
1932,2450
1960,2451
1954,2452
1976,2453
1983,2454
1997,2455
1995,2456
1997,2457
1995,2458
1960,2459
1945,2460
1919,2461
1891,2462
1911,2463
1892,2464
1885,2465
1885,2466
1891,2467
1890,2468
1923,2469
1952,2470
1960,2471
1979,2472
1971,2473
2040,2474
1998,2475
2015,2476
1987,2477
2014,2478
1977,2479
1909,2480
1932,2481
1930,2482
1917,2483
1935,2484
1927,2485
1886,2486
1927,2487
1875,2488
1902,2489
1916,2490
1955,2491
1967,2492
1942,2493
1941,2494
1975,2495
1974,2496
1964,2497
2017,2498
1978,2499
1954,2500
1945,2501
1920,2502
1931,2503
1887,2504
1907,2505
1905,2506
1909,2507
1912,2508
1933,2509
1932,2510
1951,2511
1962,2512
1985,2513
1972,2514
1998,2515
2022,2516
1984,2517
1988,2518
1947,2519
1944,2520
1950,2521
1904,2522
1908,2523
1900,2524
1866,2525
1926,2526
1918,2527
1907,2528
1924,2529
1948,2530
1947,2531
1947,2532
1976,2533
2012,2534
2004,2535
1989,2536
1967,2537
1981,2538
1961,2539
1916,2540
1946,2541
1916,2542
1875,2543
1860,2544
1876,2545
1891,2546
1882,2547
1895,2548
1906,2549
1949,2550
1960,2551
1948,2552
1979,2553
1985,2554
1997,2555
1974,2556
2008,2557
1993,2558
1989,2559
1959,2560
1946,2561
1929,2562
1887,2563
1897,2564
1896,2565
1899,2566
1907,2567
1939,2568
1933,2569
1920,2570
1943,2571
1964,2572
1965,2573
1987,2574
2003,2575
1976,2576
2018,2577
2003,2578
1987,2579
1965,2580
1960,2581
1948,2582
1920,2583
1893,2584
1859,2585
1920,2586
1943,2587
1901,2588
1945,2589
1955,2590
1960,2591
1964,2592
1973,2593
1968,2594
1993,2595
2003,2596
1983,2597
1966,2598
1960,2599
1927,2600
1939,2601
1927,2602
1885,2603
1902,2604
1887,2605
1889,2606
1892,2607
1907,2608
1914,2609
1921,2610
1950,2611
1961,2612
1976,2613
1983,2614
1961,2615
1984,2616
1992,2617
1975,2618
1952,2619
1929,2620
1927,2621
1935,2622
1879,2623
1917,2624
1888,2625
1923,2626
1909,2627
1915,2628
1888,2629
1917,2630
1952,2631
1947,2632
1971,2633
1974,2634
1983,2635
2006,2636
1985,2637
1962,2638
1969,2639
1944,2640
1930,2641
1934,2642
1914,2643
1913,2644
1907,2645
1882,2646
1890,2647
1916,2648
1906,2649
1966,2650
1944,2651
1964,2652
1960,2653
1997,2654
1990,2655
1986,2656
1975,2657
1983,2658
1984,2659
1944,2660
1934,2661
1932,2662
1925,2663
1906,2664
1888,2665
1928,2666
1935,2667
1939,2668
1918,2669
1957,2670
1974,2671
1959,2672
1988,2673
2008,2674
1995,2675
1992,2676
1991,2677
1991,2678
1959,2679
1948,2680
1953,2681
1947,2682
1883,2683
1889,2684
1880,2685
1885,2686
1902,2687
1912,2688
1903,2689
1935,2690
1948,2691
1964,2692
1999,2693
1990,2694
1991,2695
1991,2696
1998,2697
1970,2698
1979,2699
1939,2700
1942,2701
1922,2702
1901,2703
1878,2704
1921,2705
1872,2706
1924,2707
1912,2708
1924,2709
1938,2710
1939,2711
1943,2712
1980,2713
1959,2714
1982,2715
1971,2716
1982,2717
1968,2718
1955,2719
1967,2720
1920,2721
1936,2722
1920,2723
1925,2724
1882,2725
1891,2726
1928,2727
1904,2728
1930,2729
1944,2730
1916,2731
1965,2732
1972,2733
1977,2734
1976,2735
1972,2736
1995,2737
2002,2738
1942,2739
1947,2740
1939,2741
1914,2742
1922,2743
1906,2744
1892,2745
1865,2746
1853,2747
1881,2748
1935,2749
1940,2750
1946,2751
1979,2752
1976,2753
2000,2754
2015,2755
2018,2756
2012,2757
1998,2758
1984,2759
1971,2760
1957,2761
1946,2762
1918,2763
1901,2764
1895,2765
1879,2766
1902,2767
1875,2768
1932,2769
1963,2770
1927,2771
1958,2772
1937,2773
2002,2774
2002,2775
2003,2776
1999,2777
1955,2778
1957,2779
1948,2780
1894,2781
1881,2782
1920,2783
1916,2784
1868,2785
1901,2786
1913,2787
1914,2788
1934,2789
1947,2790
1951,2791
1956,2792
2003,2793
2005,2794
1997,2795
1989,2796
1971,2797
1978,2798
1977,2799
1978,2800
1950,2801
1937,2802
1899,2803
1903,2804
1894,2805
1900,2806
1904,2807
1909,2808
1920,2809
1917,2810
1935,2811
1964,2812
1971,2813
2004,2814
1967,2815
1995,2816
1967,2817
1959,2818
1956,2819
1953,2820
1932,2821
1923,2822
1919,2823
1922,2824
1895,2825
1920,2826
1902,2827
1935,2828
1927,2829
1918,2830
1937,2831
1967,2832
1966,2833
1981,2834
1971,2835
2012,2836
1996,2837
1976,2838
1979,2839
1915,2840
1928,2841
1904,2842
1922,2843
1907,2844
1901,2845
1897,2846
1908,2847
1874,2848
1919,2849
1930,2850
1931,2851
1945,2852
1986,2853
1982,2854
1988,2855
1994,2856
1987,2857
1961,2858
1969,2859
1956,2860
1945,2861
1931,2862
1932,2863
1926,2864
1904,2865
1904,2866
1914,2867
1918,2868
1917,2869
1927,2870
1951,2871
1951,2872
1977,2873
1985,2874
1999,2875
1988,2876
1981,2877
1977,2878
1973,2879
1969,2880
1956,2881
1932,2882
1920,2883
1927,2884
1922,2885
1897,2886
1917,2887
1921,2888
1939,2889
1940,2890
1951,2891
1970,2892
1993,2893
2003,2894
1993,2895
1987,2896
1987,2897
2012,2898
1997,2899
1925,2900
1936,2901
1921,2902
1904,2903
1903,2904
1884,2905
1885,2906
1902,2907
1885,2908
1902,2909
1928,2910
1944,2911
1965,2912
1986,2913
1987,2914
1997,2915
2001,2916
2014,2917
2001,2918
1945,2919
1955,2920
1930,2921
1903,2922
1950,2923
1926,2924
1917,2925
1921,2926
1916,2927
1920,2928
1938,2929
1943,2930
1920,2931
1953,2932
1962,2933
1976,2934
1971,2935
1943,2936
1951,2937
1959,2938
1991,2939
1951,2940
1950,2941
1924,2942
1916,2943
1910,2944
1920,2945
1928,2946
1926,2947
1893,2948
1910,2949
1936,2950
1976,2951
1982,2952
1971,2953
1984,2954
1971,2955
1980,2956
1988,2957
1957,2958
1952,2959
1957,2960
1964,2961
1887,2962
1908,2963
1900,2964
1901,2965
1888,2966
1874,2967
1907,2968
1919,2969
1934,2970
1952,2971
1970,2972
1963,2973
2009,2974
2019,2975
1986,2976
1975,2977
1990,2978
1986,2979
1986,2980
1947,2981
1928,2982
1900,2983
1913,2984
1896,2985
1895,2986
1909,2987
1911,2988
1936,2989
1943,2990
1950,2991
1933,2992
1969,2993
1965,2994
2010,2995
2006,2996
2008,2997
1952,2998
1972,2999
1950,3000
1943,3001
1923,3002
1924,3003
1910,3004
1910,3005
1876,3006
1895,3007
1892,3008
1907,3009
1925,3010
1964,3011
1978,3012
1967,3013
1975,3014
1999,3015
1966,3016
1978,3017
2002,3018
1946,3019
1979,3020
1957,3021
1934,3022
1936,3023
1913,3024
1899,3025
1887,3026
1922,3027
1887,3028
1904,3029
1927,3030
1938,3031
1973,3032
1966,3033
2007,3034
1999,3035
1990,3036
1978,3037
1936,3038
1940,3039
1954,3040
1911,3041
1898,3042
1883,3043
1900,3044
1901,3045
1924,3046
1908,3047
1908,3048
1947,3049
1929,3050
1967,3051
2005,3052
1996,3053
1985,3054
1959,3055
2001,3056
1983,3057
1969,3058
1949,3059
1945,3060
1942,3061
1943,3062
1902,3063
1908,3064
1880,3065
1896,3066
1883,3067
1887,3068
1923,3069
1906,3070
1920,3071
1964,3072
1970,3073
1975,3074
1966,3075
1983,3076
1987,3077
1945,3078
1979,3079
1952,3080
1942,3081
1942,3082
1896,3083
1913,3084
1895,3085
1912,3086
1910,3087
1913,3088
1936,3089
1928,3090
1939,3091
1937,3092
1979,3093
1979,3094
1984,3095
2000,3096
2004,3097
1975,3098
1971,3099
1952,3100
1911,3101
1918,3102
1857,3103
1886,3104
1875,3105
1904,3106
1900,3107
1915,3108
1906,3109
1932,3110
1941,3111
1946,3112
1962,3113
1966,3114
1990,3115
2001,3116
2004,3117
1985,3118
1985,3119
1959,3120
1955,3121
1938,3122
1920,3123
1881,3124
1879,3125
1910,3126
1881,3127
1906,3128
1912,3129
1929,3130
1952,3131
1915,3132
1958,3133
1968,3134
1984,3135
1990,3136
1994,3137
1977,3138
1972,3139
1948,3140
1917,3141
1927,3142
1912,3143
1871,3144
1890,3145
1898,3146
1915,3147
1920,3148
1898,3149
1928,3150
1953,3151
1977,3152
1995,3153
1998,3154
2000,3155
2007,3156
2005,3157
1983,3158
1979,3159
1955,3160
1933,3161
1940,3162
1892,3163
1878,3164
1903,3165
1880,3166
1905,3167
1895,3168
1915,3169
1907,3170
1944,3171
1938,3172
1976,3173
1976,3174
2004,3175
1993,3176
2007,3177
1992,3178
1964,3179
1919,3180
1949,3181
1922,3182
1926,3183
1905,3184
1930,3185
1899,3186
1932,3187
1903,3188
1911,3189
1934,3190
1966,3191
1972,3192
1947,3193
1986,3194
1973,3195
1976,3196
1965,3197
1967,3198
1979,3199
1943,3200
1924,3201
1923,3202
1902,3203
1871,3204
1857,3205
1911,3206
1887,3207
1914,3208
1878,3209
1895,3210
1929,3211
1945,3212
1934,3213
1977,3214
1981,3215
1976,3216
1991,3217
1976,3218
1983,3219
1966,3220
1955,3221
1926,3222
1912,3223
1900,3224
1898,3225
1912,3226
1909,3227
1935,3228
1934,3229
1930,3230
1921,3231
1954,3232
1986,3233
1985,3234
2000,3235
1995,3236
1987,3237
1970,3238
1978,3239
1967,3240
1903,3241
1940,3242
1912,3243
1880,3244
1874,3245
1912,3246
1904,3247
1910,3248
1908,3249
1907,3250
1955,3251
1920,3252
1985,3253
1983,3254
1987,3255
1992,3256
1992,3257
1938,3258
1954,3259
1973,3260
1929,3261
1930,3262
1903,3263
1901,3264
1879,3265
1897,3266
1895,3267
1869,3268
1947,3269
1911,3270
1956,3271
1966,3272
1968,3273
1967,3274
1983,3275
1998,3276
1967,3277
1985,3278
1974,3279
1968,3280
1944,3281
1902,3282
1896,3283
1926,3284
1901,3285
1887,3286
1904,3287
1891,3288
1907,3289
1906,3290
1942,3291
1961,3292
1935,3293
1975,3294
1949,3295
1973,3296
1981,3297
1979,3298
1987,3299
1952,3300
1959,3301
1927,3302
1908,3303
1904,3304
1886,3305
1911,3306
1902,3307
1927,3308
1901,3309
1925,3310
1949,3311
1951,3312
1958,3313
1969,3314
1953,3315
1987,3316
1979,3317
1974,3318
1960,3319
1968,3320
1952,3321
1922,3322
1934,3323
1900,3324
1902,3325
1905,3326
1891,3327
1919,3328
1936,3329
1944,3330
1928,3331
1963,3332
1973,3333
1986,3334
1976,3335
1966,3336
1962,3337
1959,3338
1951,3339
1961,3340
1933,3341
1920,3342
1880,3343
1898,3344
1867,3345
1903,3346
1910,3347
1912,3348
1923,3349
1949,3350
1971,3351
1955,3352
1965,3353
2007,3354
1998,3355
2003,3356
1975,3357
1975,3358
1979,3359
1949,3360
1933,3361
1916,3362
1894,3363
1892,3364
1885,3365
1896,3366
1901,3367
1920,3368
1902,3369
1921,3370
1903,3371
1966,3372
1973,3373
1940,3374
1970,3375
1967,3376
1979,3377
1955,3378
1982,3379
1967,3380
1951,3381
1932,3382
1923,3383
1931,3384
1905,3385
1875,3386
1912,3387
1908,3388
1920,3389
1944,3390
1960,3391
1947,3392
1973,3393
1993,3394
2013,3395
1993,3396
1996,3397
1969,3398
1964,3399
1927,3400
1912,3401
1918,3402
1901,3403
1879,3404
1900,3405
1884,3406
1914,3407
1913,3408
1941,3409
1923,3410
1956,3411
1972,3412
1960,3413
1977,3414
2010,3415
2011,3416
1974,3417
2008,3418
1982,3419
1985,3420
1941,3421
1937,3422
1947,3423
1894,3424
1913,3425
1872,3426
1898,3427
1905,3428
1917,3429
1938,3430
1942,3431
1933,3432
1977,3433
1959,3434
1956,3435
2012,3436
1971,3437
1968,3438
1976,3439
1943,3440
1935,3441
1927,3442
1912,3443
1906,3444
1859,3445
1921,3446
1881,3447
1895,3448
1934,3449
1963,3450
1935,3451
1976,3452
1974,3453
1989,3454
2003,3455
1975,3456
1998,3457
1961,3458
1966,3459
1963,3460
1953,3461
1924,3462
1934,3463
1889,3464
1904,3465
1885,3466
1895,3467
1885,3468
1905,3469
1926,3470
1960,3471
1967,3472
1961,3473
1974,3474
1995,3475
1963,3476
1984,3477
1969,3478
1987,3479
1942,3480
1920,3481
1909,3482
1919,3483
1863,3484
1899,3485
1899,3486
1868,3487
1891,3488
1916,3489
1913,3490
1931,3491
1967,3492
1976,3493
1965,3494
2016,3495
2003,3496
1972,3497
1948,3498
1970,3499
1980,3500
1948,3501
1919,3502
1901,3503
1921,3504
1905,3505
1895,3506
1890,3507
1902,3508
1902,3509
1940,3510
1936,3511
1943,3512
1963,3513
1967,3514
1994,3515
1990,3516
1978,3517
1966,3518
1972,3519
1964,3520
1929,3521
1938,3522
1927,3523
1909,3524
1902,3525
1926,3526
1912,3527
1935,3528
1934,3529
1944,3530
1937,3531
1946,3532
1978,3533
2001,3534
1991,3535
1982,3536
1984,3537
1960,3538
1988,3539
1923,3540
1945,3541
1899,3542
1917,3543
1924,3544
1872,3545
1887,3546
1911,3547
1918,3548
1881,3549
1927,3550
1931,3551
1966,3552
1947,3553
1951,3554
1981,3555
2008,3556
1975,3557
1983,3558
1962,3559
1968,3560
1954,3561
1931,3562
1918,3563
1910,3564
1889,3565
1905,3566
1902,3567
1908,3568
1910,3569
1938,3570
1959,3571
1948,3572
1944,3573
1965,3574
1982,3575
1995,3576
1977,3577
1971,3578
1968,3579
1931,3580
1915,3581
1911,3582
1912,3583
1910,3584
1907,3585
1903,3586
1920,3587
1889,3588
1896,3589
1907,3590
1926,3591
1925,3592
1953,3593
1959,3594
1982,3595
1969,3596
1977,3597
1982,3598
1969,3599
1951,3600
1952,3601
1945,3602
1921,3603
1924,3604
1916,3605
1911,3606
1899,3607
1900,3608
1933,3609
1927,3610
1964,3611
1947,3612
1924,3613
1976,3614
1967,3615
1986,3616
1989,3617
1979,3618
1985,3619
1976,3620
1966,3621
1972,3622
1942,3623
1947,3624
1920,3625
1920,3626
1905,3627
1918,3628
1912,3629
1895,3630
1928,3631
1929,3632
1957,3633
1970,3634
1978,3635
1967,3636
1982,3637
1938,3638
1970,3639
1944,3640
1946,3641
1887,3642
1915,3643
1881,3644
1897,3645
1897,3646
1916,3647
1943,3648
1928,3649
1939,3650
1973,3651
1968,3652
1993,3653
1982,3654
2020,3655
1998,3656
2000,3657
1981,3658
1966,3659
1938,3660
1950,3661
1907,3662
1926,3663
1902,3664
1887,3665
1871,3666
1879,3667
1912,3668
1890,3669
1921,3670
1903,3671
1974,3672
1962,3673
1988,3674
1998,3675
1982,3676
1971,3677
1970,3678
1967,3679
1951,3680
1939,3681
1891,3682
1891,3683
1910,3684
1929,3685
1874,3686
1905,3687
1889,3688
1916,3689
1921,3690
1968,3691
1971,3692
1983,3693
1965,3694
1977,3695
1975,3696
2016,3697
2000,3698
1967,3699
1944,3700
1933,3701
1917,3702
1907,3703
1882,3704
1918,3705
1914,3706
1924,3707
1936,3708
1925,3709
1928,3710
1964,3711
1952,3712
1980,3713
1954,3714
2000,3715
1979,3716
1968,3717
2018,3718
1984,3719
1963,3720
1940,3721
1895,3722
1920,3723
1876,3724
1914,3725
1881,3726
1905,3727
1907,3728
1875,3729
1933,3730
1953,3731
1957,3732
1968,3733
1984,3734
1982,3735
1998,3736
1961,3737
1969,3738
1981,3739
1985,3740
1940,3741
1948,3742
1911,3743
1914,3744
1875,3745
1901,3746
1905,3747
1903,3748
1904,3749
1932,3750
1925,3751
1935,3752
1940,3753
1976,3754
2005,3755
1989,3756
1965,3757
1981,3758
1942,3759
1921,3760
1932,3761
1928,3762
1923,3763
1920,3764
1905,3765
1882,3766
1880,3767
1922,3768
1932,3769
1961,3770
1960,3771
1966,3772
1985,3773
2007,3774
2032,3775
2028,3776
2023,3777
1992,3778
1980,3779
1962,3780
1939,3781
1935,3782
1898,3783
1879,3784
1882,3785
1861,3786
1888,3787
1879,3788
1897,3789
1898,3790
1930,3791
1928,3792
1957,3793
1984,3794
1984,3795
2001,3796
2028,3797
1959,3798
1986,3799
1970,3800
1924,3801
1927,3802
1899,3803
1932,3804
1910,3805
1916,3806
1902,3807
1881,3808
1910,3809
1915,3810
1914,3811
1953,3812
1971,3813
1980,3814
1977,3815
1979,3816
1973,3817
1971,3818
1963,3819
1965,3820
1957,3821
1960,3822
1915,3823
1930,3824
1886,3825
1902,3826
1903,3827
1891,3828
1922,3829
1908,3830
1938,3831
1971,3832
1977,3833
1996,3834
1967,3835
1995,3836
1955,3837
1942,3838
1976,3839
1951,3840
1940,3841
1952,3842
1929,3843
1903,3844
1915,3845
1932,3846
1928,3847
1911,3848
1928,3849
1926,3850
1950,3851
1961,3852
1963,3853
1995,3854
1959,3855
1998,3856
1973,3857
1989,3858
1967,3859
1950,3860
1945,3861
1942,3862
1933,3863
1930,3864
1918,3865
1902,3866
1910,3867
1941,3868
1917,3869
1938,3870
1956,3871
1959,3872
1989,3873
1970,3874
1988,3875
1991,3876
1990,3877
1983,3878
1972,3879
1955,3880
1968,3881
1942,3882
1891,3883
1930,3884
1904,3885
1889,3886
1924,3887
1889,3888
1907,3889
1941,3890
1941,3891
1952,3892
1943,3893
1972,3894
1964,3895
1989,3896
1988,3897
1989,3898
1968,3899
1951,3900
1929,3901
1943,3902
1929,3903
1894,3904
1893,3905
1915,3906
1875,3907
1889,3908
1931,3909
1942,3910
1968,3911
1960,3912
1984,3913
1993,3914
1996,3915
1999,3916
1987,3917
1979,3918
1970,3919
1931,3920
1917,3921
1901,3922
1863,3923
1900,3924
1889,3925
1880,3926
1872,3927
1867,3928
1917,3929
1927,3930
1958,3931
1965,3932
1949,3933
1950,3934
2000,3935
2010,3936
1990,3937
1976,3938
1971,3939
1948,3940
1951,3941
1913,3942
1947,3943
1921,3944
1905,3945
1875,3946
1883,3947
1929,3948
1904,3949
1937,3950
1936,3951
1952,3952
1992,3953
1987,3954
1985,3955
1999,3956
1985,3957
1987,3958
2010,3959
1951,3960
1930,3961
1944,3962
1945,3963
1927,3964
1912,3965
1907,3966
1909,3967
1891,3968
1943,3969
1948,3970
1983,3971
1971,3972
1989,3973
1973,3974
1977,3975
1977,3976
1988,3977
1980,3978
1949,3979
1988,3980
1932,3981
1949,3982
1918,3983
1915,3984
1875,3985
1872,3986
1900,3987
1923,3988
1897,3989
1930,3990
1933,3991
1948,3992
1968,3993
1981,3994
1995,3995
1982,3996
1984,3997
1943,3998
1936,3999
1951,4000
1934,4001
1911,4002
1927,4003
1894,4004
1900,4005
1892,4006
1893,4007
1921,4008
1911,4009
1943,4010
1930,4011
1959,4012
1954,4013
1967,4014
1982,4015
2016,4016
2006,4017
2008,4018
1989,4019
1955,4020
1917,4021
1941,4022
1911,4023
1922,4024
1898,4025
1905,4026
1921,4027
1877,4028
1916,4029
1947,4030
1935,4031
1950,4032
1976,4033
2005,4034
1992,4035
1997,4036
1990,4037
1968,4038
1988,4039
1946,4040
1940,4041
1903,4042
1902,4043
1900,4044
1902,4045
1869,4046
1910,4047
1901,4048
1926,4049
1952,4050
1975,4051
1983,4052
1975,4053
1995,4054
2009,4055
1998,4056
1984,4057
1963,4058
1968,4059
1925,4060
1935,4061
1918,4062
1908,4063
1903,4064
1901,4065
1892,4066
1868,4067
1885,4068
1920,4069
1967,4070
1955,4071
1964,4072
1960,4073
1968,4074
1964,4075
1983,4076
1947,4077
1954,4078
1955,4079
1949,4080
1938,4081
1943,4082
1931,4083
1920,4084
1921,4085
1930,4086
1926,4087
1940,4088
1953,4089
1900,4090
1932,4091
1966,4092
1956,4093
1984,4094
1988,4095
1959,4096
1951,4097
1980,4098
1969,4099
1951,4100
1936,4101
1908,4102
1889,4103
1901,4104
1918,4105
1872,4106
1923,4107
1909,4108
1911,4109
1901,4110
1954,4111
1955,4112
1974,4113
1989,4114
1995,4115
2040,4116
2004,4117
2000,4118
1983,4119
1970,4120
1956,4121
1938,4122
1951,4123
1958,4124
1917,4125
1892,4126
1914,4127
1885,4128
1905,4129
1916,4130
1931,4131
1935,4132
1935,4133
1963,4134
1976,4135
1988,4136
1974,4137
1986,4138
1951,4139
1969,4140
1939,4141
1944,4142
1933,4143
1889,4144
1893,4145
1931,4146
1896,4147
1918,4148
1909,4149
1943,4150
1927,4151
1921,4152
1960,4153
1969,4154
1955,4155
1986,4156
1952,4157
1951,4158
1961,4159
1957,4160
1912,4161
1892,4162
1911,4163
1873,4164
1911,4165
1909,4166
1898,4167
1898,4168
1910,4169
1922,4170
1929,4171
1949,4172
1975,4173
1992,4174
2006,4175
1988,4176
1984,4177
1990,4178
1956,4179
1986,4180
1949,4181
1933,4182
1916,4183
1913,4184
1865,4185
1879,4186
1878,4187
1906,4188
1932,4189
1918,4190
1932,4191
1936,4192
1955,4193
1980,4194
1979,4195
1967,4196
1956,4197
1953,4198
1978,4199
1975,4200
1934,4201
1938,4202
1898,4203
1919,4204
1908,4205
1881,4206
1902,4207
1905,4208
1913,4209
1953,4210
1959,4211
1958,4212
1967,4213
1959,4214
1983,4215
1999,4216
1998,4217
1983,4218
1933,4219
1937,4220
1934,4221
1916,4222
1913,4223
1909,4224
1908,4225
1891,4226
1904,4227
1873,4228
1940,4229
1963,4230
1960,4231
1967,4232
1954,4233
1984,4234
1968,4235
1989,4236
1984,4237
1984,4238
1974,4239
1955,4240
1911,4241
1931,4242
1922,4243
1928,4244
1892,4245
1903,4246
1901,4247
1903,4248
1893,4249
1950,4250
1973,4251
1971,4252
1980,4253
1999,4254
2008,4255
1998,4256
1951,4257
1954,4258
1942,4259
1952,4260
1936,4261
1940,4262
1895,4263
1911,4264
1907,4265
1903,4266
1895,4267
1926,4268
1920,4269
1912,4270
1922,4271
1956,4272
1955,4273
1951,4274
1981,4275
1969,4276
1983,4277
1977,4278
1968,4279
1925,4280
1919,4281
1936,4282
1912,4283
1918,4284
1877,4285
1912,4286
1909,4287
1888,4288
1918,4289
1909,4290
1936,4291
1953,4292
1987,4293
1985,4294
1998,4295
1995,4296
1988,4297
2000,4298
1981,4299
1966,4300
1945,4301
1943,4302
1906,4303
1898,4304
1910,4305
1882,4306
1852,4307
1913,4308
1942,4309
1966,4310
2003,4311
2012,4312
2011,4313
2024,4314
2031,4315
1992,4316
1976,4317
1975,4318
1937,4319
1934,4320
1895,4321
1876,4322
1889,4323
1856,4324
1878,4325
1882,4326
1875,4327
1865,4328
1892,4329
1919,4330
1951,4331
1967,4332
1967,4333
1983,4334
2017,4335
2013,4336
1957,4337
1988,4338
1978,4339
1931,4340
1935,4341
1926,4342
1910,4343
1849,4344
1897,4345
1904,4346
1906,4347
1904,4348
1879,4349
1922,4350
1925,4351
1957,4352
1942,4353
1962,4354
2000,4355
1974,4356
1982,4357
1991,4358
1970,4359
1943,4360
1952,4361
1910,4362
1915,4363
1902,4364
1898,4365
1868,4366
1915,4367
1922,4368
1936,4369
1936,4370
1947,4371
1960,4372
1956,4373
1976,4374
2008,4375
1937,4376
1976,4377
1928,4378
1943,4379
1964,4380
1921,4381
1916,4382
1907,4383
1898,4384
1889,4385
1890,4386
1883,4387
1914,4388
1891,4389
1908,4390
1943,4391
1947,4392
1967,4393
1993,4394
1976,4395
2007,4396
1984,4397
2004,4398
1997,4399
1970,4400
1947,4401
1935,4402
1932,4403
1897,4404
1908,4405
1910,4406
1859,4407
1886,4408
1929,4409
1950,4410
1928,4411
1954,4412
1973,4413
1934,4414
2006,4415
1953,4416
1991,4417
1976,4418
1944,4419
1930,4420
1948,4421
1956,4422
1919,4423
1881,4424
1881,4425
1886,4426
1900,4427
1907,4428
1957,4429
1921,4430
1941,4431
1977,4432
1982,4433
1975,4434
1994,4435
1978,4436
1991,4437
1949,4438
1962,4439
1952,4440
1898,4441
1907,4442
1888,4443
1891,4444
1891,4445
1902,4446
1867,4447
1900,4448
1885,4449
1893,4450
1937,4451
1956,4452
1983,4453
1979,4454
1956,4455
1982,4456
2019,4457
1998,4458
2011,4459
1937,4460
1926,4461
1944,4462
1913,4463
1950,4464
1896,4465
1906,4466
1894,4467
1911,4468
1906,4469
1906,4470
1933,4471
1938,4472
1961,4473
1991,4474
2032,4475
2033,4476
2011,4477
2040,4478
2020,4479
2001,4480
1949,4481
1981,4482
1973,4483
1924,4484
1922,4485
1864,4486
1873,4487
1855,4488
1823,4489
1877,4490
1890,4491
1926,4492
1931,4493
1949,4494
1966,4495
1990,4496
1992,4497
1957,4498
1950,4499
1950,4500
1945,4501
1923,4502
1909,4503
1886,4504
1898,4505
1918,4506
1877,4507
1922,4508
1908,4509
1920,4510
1945,4511
1954,4512
1949,4513
1990,4514
1987,4515
2012,4516
1974,4517
1949,4518
1957,4519
1953,4520
1926,4521
1920,4522
1918,4523
1897,4524
1883,4525
1907,4526
1938,4527
1923,4528
1951,4529
1952,4530
1955,4531
1973,4532
2017,4533
2035,4534
2030,4535
2049,4536
2017,4537
2006,4538
1985,4539
1943,4540
1927,4541
1925,4542
1884,4543
1867,4544
1886,4545
1912,4546
1918,4547
1942,4548
2008,4549
1997,4550
2008,4551
2018,4552
1963,4553
1982,4554
1950,4555
1953,4556
1953,4557
1935,4558
1941,4559
1888,4560
1912,4561
1883,4562
1871,4563
1866,4564
1835,4565
1853,4566
1840,4567
1888,4568
1881,4569
1907,4570
1928,4571
1956,4572
1994,4573
1993,4574
2032,4575
2040,4576
2082,4577
2087,4578
2067,4579
2078,4580
2049,4581
2073,4582
2017,4583
1989,4584
1939,4585
1877,4586
1865,4587
1844,4588
1855,4589
1830,4590
1826,4591
1848,4592
1864,4593
1878,4594
1923,4595
1943,4596
1960,4597
1955,4598
1945,4599
1929,4600
1903,4601
1870,4602
1922,4603
1919,4604
1883,4605
1889,4606
1898,4607
1895,4608
1928,4609
1950,4610
1965,4611
2016,4612
2048,4613
2089,4614
2064,4615
2081,4616
2065,4617
2007,4618
1991,4619
1963,4620
1962,4621
1899,4622
1877,4623
1848,4624
1832,4625
1836,4626
1831,4627
1867,4628
1863,4629
1914,4630
1932,4631
1967,4632
1992,4633
1984,4634
1995,4635
2014,4636
1983,4637
1998,4638
1967,4639
2032,4640
1985,4641
1956,4642
1913,4643
1921,4644
1899,4645
1905,4646
1895,4647
1889,4648
1897,4649
1904,4650
1917,4651
1912,4652
1907,4653
1914,4654
1940,4655
1976,4656
1955,4657
1970,4658
1935,4659
1930,4660
1924,4661
1933,4662
1905,4663
1896,4664
1888,4665
1871,4666
1873,4667
1869,4668
1909,4669
1935,4670
1948,4671
1975,4672
1975,4673
1972,4674
1990,4675
2028,4676
2001,4677
1971,4678
1979,4679
1959,4680
1951,4681
1879,4682
1870,4683
1846,4684
1839,4685
1816,4686
1837,4687
1851,4688
1846,4689
1896,4690
1890,4691
1879,4692
1897,4693
1942,4694
1970,4695
1958,4696
1958,4697
1951,4698
1954,4699
1935,4700
1942,4701
1875,4702
1893,4703
1897,4704
1890,4705
1873,4706
1857,4707
1904,4708
1897,4709
1878,4710
1881,4711
1914,4712
1976,4713
1981,4714
1982,4715
2012,4716
2016,4717
1990,4718
2006,4719
1988,4720
1978,4721
1973,4722
1945,4723
1945,4724
1923,4725
1940,4726
1928,4727
1950,4728
1956,4729
1980,4730
1986,4731
2002,4732
1999,4733
2011,4734
2007,4735
2028,4736
2015,4737
2051,4738
2031,4739
1988,4740
1975,4741
1950,4742
1914,4743
1875,4744
1851,4745
1856,4746
1852,4747
1851,4748
1874,4749
1862,4750
1908,4751
1941,4752
1960,4753
1982,4754
1984,4755
2036,4756
2025,4757
2024,4758
2054,4759
2034,4760
2048,4761
2030,4762
1970,4763
1946,4764
1945,4765
1958,4766
1911,4767
1897,4768
1892,4769
1893,4770
1921,4771
1862,4772
1920,4773
1923,4774
2002,4775
2009,4776
1993,4777
1989,4778
2010,4779
2047,4780
2067,4781
2078,4782
2089,4783
2076,4784
2061,4785
2038,4786
2005,4787
2023,4788
2025,4789
2002,4790
2036,4791
2038,4792
2054,4793
2040,4794
2048,4795
2049,4796
2035,4797
2032,4798
1995,4799
1964,4800
1950,4801
1936,4802
1911,4803
1887,4804
1924,4805
1906,4806
1904,4807
1982,4808
2011,4809
2058,4810
2051,4811
2031,4812
2001,4813
2003,4814
2013,4815
2035,4816
2111,4817
2079,4818
2161,4819
2184,4820
2211,4821
2189,4822
2207,4823
2124,4824
2040,4825
1936,4826
1945,4827
1896,4828
1832,4829
1746,4830
1771,4831
1813,4832
1832,4833
1924,4834
2007,4835
1999,4836
1986,4837
2044,4838
2066,4839
2047,4840
2038,4841
2063,4842
2175,4843
2352,4844
2415,4845
2354,4846
2289,4847
2196,4848
2083,4849
2018,4850
2020,4851
2010,4852
2038,4853
2040,4854
2031,4855
2037,4856
1980,4857
1898,4858
1712,4859
1656,4860
1631,4861
1613,4862
1628,4863
1652,4864
1712,4865
1771,4866
1848,4867
1898,4868
1909,4869
1902,4870
1924,4871
1976,4872
2037,4873
2071,4874
2057,4875
2037,4876
2057,4877
2054,4878
2039,4879
1978,4880
1988,4881
2036,4882
2096,4883
2176,4884
2278,4885
2264,4886
2303,4887
2234,4888
2146,4889
2076,4890
1983,4891
1904,4892
1862,4893
1812,4894
1714,4895
1676,4896
1677,4897
1717,4898
1761,4899
1769,4900
1768,4901
1748,4902
1812,4903
1811,4904
1831,4905
1799,4906
1840,4907
1914,4908
1921,4909
1975,4910
1974,4911
2016,4912
2006,4913
2018,4914
2004,4915
1998,4916
1962,4917
1954,4918
1931,4919
1873,4920
1874,4921
1879,4922
1801,4923
1813,4924
1813,4925
1865,4926
1924,4927
1944,4928
1992,4929
1963,4930
2026,4931
2072,4932
2212,4933
2348,4934
2400,4935
2422,4936
2420,4937
2330,4938
2319,4939
2341,4940
2230,4941
2087,4942
1994,4943
1963,4944
1873,4945
1779,4946
1664,4947
1578,4948
1559,4949
1605,4950
1637,4951
1665,4952
1752,4953
1833,4954
1919,4955
1972,4956
1967,4957
1971,4958
2010,4959
2037,4960
2030,4961
2019,4962
1995,4963
1939,4964
1892,4965
1840,4966
1796,4967
1818,4968
1866,4969
1842,4970
1895,4971
1955,4972
1955,4973
1970,4974
2004,4975
1922,4976
1927,4977
1924,4978
1941,4979
1960,4980
1936,4981
1937,4982
1928,4983
1959,4984
1953,4985
1942,4986
2017,4987
2037,4988
2070,4989
2080,4990
2072,4991
2071,4992
2062,4993
2037,4994
2140,4995
2162,4996
2153,4997
2145,4998
2101,4999
2027,5000
1941,5001
1827,5002
1818,5003
1744,5004
1735,5005
1728,5006
1776,5007
1836,5008
1871,5009
1931,5010
1956,5011
2030,5012
2140,5013
2308,5014
2372,5015
2419,5016
2362,5017
2301,5018
2184,5019
2022,5020
1847,5021
1718,5022
1596,5023
1568,5024
1619,5025
1745,5026
1786,5027
1827,5028
1891,5029
1968,5030
2048,5031
2132,5032
2196,5033
2212,5034
2246,5035
2224,5036
2160,5037
2158,5038
2088,5039
2048,5040
2016,5041
1973,5042
2021,5043
2003,5044
1970,5045
1924,5046
1916,5047
1954,5048
1886,5049
1917,5050
1960,5051
1950,5052
1987,5053
2026,5054
2136,5055
2199,5056
2200,5057
2165,5058
2154,5059
2095,5060
2062,5061
1940,5062
1893,5063
1853,5064
1776,5065
1746,5066
1765,5067
1860,5068
1922,5069
1911,5070
1971,5071
1976,5072
2034,5073
2050,5074
2048,5075
2066,5076
2001,5077
2156,5078
2261,5079
2253,5080
2263,5081
2223,5082
2180,5083
2083,5084
1984,5085
1954,5086
1836,5087
1813,5088
1980,5089
2251,5090
2349,5091
2372,5092
2365,5093
2308,5094
2208,5095
2087,5096
1936,5097
1767,5098
1698,5099
1680,5100
1728,5101
1758,5102
1817,5103
1835,5104
1910,5105
1980,5106
1971,5107
2059,5108
2151,5109
2215,5110
2248,5111
2239,5112
2104,5113
2140,5114
2183,5115
2270,5116
2232,5117
2218,5118
2129,5119
2015,5120
1967,5121
1933,5122
1860,5123
1811,5124
1705,5125
1776,5126
1825,5127
1951,5128
1986,5129
2077,5130
2178,5131
2282,5132
2334,5133
2287,5134
2198,5135
2152,5136
2168,5137
2136,5138
2036,5139
1911,5140
1787,5141
1783,5142
1916,5143
2007,5144
1993,5145
1982,5146
1961,5147
1899,5148
1937,5149
1900,5150
1893,5151
1872,5152
1911,5153
1933,5154
2026,5155
2008,5156
2110,5157
2108,5158
2081,5159
2115,5160
2066,5161
1978,5162
1884,5163
1804,5164
1789,5165
1770,5166
1804,5167
1924,5168
2024,5169
2124,5170
2156,5171
2236,5172
2259,5173
2204,5174
2099,5175
2033,5176
1987,5177
1903,5178
1886,5179
1918,5180
1904,5181
1906,5182
1845,5183
1763,5184
1777,5185
1839,5186
1875,5187
1962,5188
1984,5189
1985,5190
2010,5191
2007,5192
2014,5193
2015,5194
2076,5195
2181,5196
2276,5197
2337,5198
2371,5199
2409,5200
2342,5201
2259,5202
2136,5203
2040,5204
2088,5205
2103,5206
2074,5207
2009,5208
1979,5209
1847,5210
1840,5211
1793,5212
1730,5213
1729,5214
1752,5215
1902,5216
2007,5217
2040,5218
2047,5219
2060,5220
2007,5221
1942,5222
2031,5223
2175,5224
2182,5225
2160,5226
2136,5227
2107,5228
2063,5229
2031,5230
1903,5231
1945,5232
1963,5233
1894,5234
1968,5235
1892,5236
1904,5237
2087,5238
2188,5239
2214,5240
2195,5241
2148,5242
2175,5243
2176,5244
2217,5245
2176,5246
2238,5247
2231,5248
2196,5249
2230,5250
2242,5251
2216,5252
2063,5253
2040,5254
2018,5255
1955,5256
1949,5257
1927,5258
1920,5259
1977,5260
1992,5261
1969,5262
1996,5263
1963,5264
1953,5265
1984,5266
2024,5267
2180,5268
2216,5269
2287,5270
2344,5271
2413,5272
2367,5273
2270,5274
2186,5275
2125,5276
1988,5277
1902,5278
1817,5279
1873,5280
1864,5281
1890,5282
1878,5283
1851,5284
1883,5285
1870,5286
1915,5287
2019,5288
2130,5289
2232,5290
2241,5291
2224,5292
2220,5293
2150,5294
2099,5295
2134,5296
2143,5297
2113,5298
2043,5299
2064,5300
2089,5301
2173,5302
2220,5303
2289,5304
2285,5305
2185,5306
2140,5307
1988,5308
1795,5309
1689,5310
1721,5311
1764,5312
1672,5313
1707,5314
1760,5315
1781,5316
1816,5317
1800,5318
1806,5319
1814,5320
1888,5321
1926,5322
1927,5323
1918,5324
1918,5325
1960,5326
2054,5327
2084,5328
2070,5329
2133,5330
2115,5331
2083,5332
2135,5333
2292,5334
2389,5335
2439,5336
2330,5337
2284,5338
2252,5339
2118,5340
1986,5341
1853,5342
1726,5343
1653,5344
1699,5345
1706,5346
1761,5347
1769,5348
1795,5349
1896,5350
1994,5351
2130,5352
2233,5353
2360,5354
2376,5355
2318,5356
2220,5357
2120,5358
2070,5359
1983,5360
1869,5361
1848,5362
1730,5363
1699,5364
1716,5365
1672,5366
1774,5367
1847,5368
1980,5369
2061,5370
2121,5371
2265,5372
2404,5373
2428,5374
2494,5375
2559,5376
2565,5377
2528,5378
2439,5379
2270,5380
2162,5381
1931,5382
1689,5383
1523,5384
1413,5385
1464,5386
1523,5387
1624,5388
1805,5389
1937,5390
1963,5391
1876,5392
1887,5393
1851,5394
1854,5395
1951,5396
1994,5397
2045,5398
2044,5399
2057,5400
2141,5401
2147,5402
2163,5403
2184,5404
2168,5405
2069,5406
2043,5407
1996,5408
1951,5409
1929,5410
1874,5411
1829,5412
1837,5413
1881,5414
2005,5415
2049,5416
2051,5417
2109,5418
2104,5419
2133,5420
2097,5421
2071,5422
2112,5423
2039,5424
2004,5425
1913,5426
1972,5427
2008,5428
2052,5429
2097,5430
2005,5431
1985,5432
1986,5433
2091,5434
2152,5435
2134,5436
2122,5437
2056,5438
1935,5439
1891,5440
1790,5441
1800,5442
1831,5443
1925,5444
1957,5445
2034,5446
2052,5447
2123,5448
2101,5449
2070,5450
2018,5451
1996,5452
1926,5453
1942,5454
1904,5455
1847,5456
1812,5457
1861,5458
1956,5459
2015,5460
2074,5461
2088,5462
2241,5463
2299,5464
2289,5465
2272,5466
2252,5467
2125,5468
1999,5469
1824,5470
1677,5471
1583,5472
1569,5473
1692,5474
1773,5475
1904,5476
2075,5477
2148,5478
2204,5479
2163,5480
2052,5481
1881,5482
1814,5483
1834,5484
1946,5485
1972,5486
1976,5487
2011,5488
2072,5489
2033,5490
2007,5491
1928,5492
1928,5493
1939,5494
1976,5495
1976,5496
2008,5497
1954,5498
1977,5499
1975,5500
1943,5501
1898,5502
1944,5503
2064,5504
2176,5505
2191,5506
2195,5507
2143,5508
2074,5509
2015,5510
1964,5511
1994,5512
2060,5513
1969,5514
1894,5515
1845,5516
1765,5517
1677,5518
1735,5519
1720,5520
1753,5521
1815,5522
1904,5523
1934,5524
1933,5525
1927,5526
1937,5527
1997,5528
2039,5529
1975,5530
1933,5531
1873,5532
1879,5533
1869,5534
1904,5535
1968,5536
1968,5537
1963,5538
1930,5539
1954,5540
1977,5541
2123,5542
2206,5543
2216,5544
2175,5545
2069,5546
2008,5547
1964,5548
1892,5549
1992,5550
2075,5551
2099,5552
2062,5553
1921,5554
1735,5555
1586,5556
1527,5557
1565,5558
1695,5559
1787,5560
1811,5561
1840,5562
1846,5563
1876,5564
1904,5565
1952,5566
2031,5567
2148,5568
2219,5569
2226,5570
2186,5571
2103,5572
2000,5573
1975,5574
1851,5575
1904,5576
1848,5577
1947,5578
2191,5579
2298,5580
2391,5581
2440,5582
2322,5583
2153,5584
1951,5585
1835,5586
1630,5587
1580,5588
1661,5589
1611,5590
1699,5591
1727,5592
1786,5593
1865,5594
1890,5595
1989,5596
2080,5597
2162,5598
2280,5599
2240,5600
2167,5601
2080,5602
1948,5603
1816,5604
1616,5605
1557,5606
1630,5607
1635,5608
1672,5609
1723,5610
1795,5611
1897,5612
1976,5613
2096,5614
2201,5615
2330,5616
2399,5617
2446,5618
2342,5619
2193,5620
1972,5621
1889,5622
2010,5623
2075,5624
1983,5625
1852,5626
1738,5627
1647,5628
1608,5629
1627,5630
1835,5631
2020,5632
2153,5633
2252,5634
2216,5635
2063,5636
2021,5637
1879,5638
1715,5639
1614,5640
1619,5641
1723,5642
1884,5643
2064,5644
2098,5645
2122,5646
2129,5647
2062,5648
1962,5649
1980,5650
2135,5651
2377,5652
2514,5653
2464,5654
2320,5655
2058,5656
1764,5657
1489,5658
1524,5659
1696,5660
1982,5661
2160,5662
2144,5663
2069,5664
1930,5665
1714,5666
1621,5667
1466,5668
1468,5669
1526,5670
1844,5671
2102,5672
2311,5673
2351,5674
2251,5675
2206,5676
2102,5677
1923,5678
1817,5679
1733,5680
1823,5681
1911,5682
1954,5683
1932,5684
1940,5685
1924,5686
1786,5687
1828,5688
1920,5689
2001,5690
2085,5691
2059,5692
2032,5693
1953,5694
1848,5695
1821,5696
1823,5697
1896,5698
1875,5699
1865,5700
1760,5701
1696,5702
1640,5703
1725,5704
1739,5705
1670,5706
1623,5707
1635,5708
1678,5709
1750,5710
1767,5711
1779,5712
1892,5713
1989,5714
2041,5715
2077,5716
2171,5717
2299,5718
2297,5719
2328,5720
2159,5721
2058,5722
2030,5723
1974,5724
1884,5725
1829,5726
1739,5727
1829,5728
1892,5729
1912,5730
2007,5731
2112,5732
2211,5733
2187,5734
2061,5735
1987,5736
1906,5737
1799,5738
1719,5739
1662,5740
1679,5741
1675,5742
1662,5743
1674,5744
1681,5745
1720,5746
1683,5747
1769,5748
1875,5749
2172,5750
2408,5751
2438,5752
2393,5753
2375,5754
2189,5755
1977,5756
1760,5757
1574,5758
1470,5759
1448,5760
1442,5761
1608,5762
1697,5763
1769,5764
1884,5765
1909,5766
1899,5767
1794,5768
1761,5769
1737,5770
1777,5771
1790,5772
1795,5773
1818,5774
1895,5775
2002,5776
2018,5777
2000,5778
1939,5779
1960,5780
2027,5781
2064,5782
2113,5783
2191,5784
2281,5785
2276,5786
2117,5787
1973,5788
1790,5789
1687,5790
1580,5791
1571,5792
1529,5793
1652,5794
1869,5795
1999,5796
2023,5797
1986,5798
2037,5799
2031,5800
1977,5801
1909,5802
1828,5803
1836,5804
1723,5805
1674,5806
1622,5807
1628,5808
1679,5809
1768,5810
1824,5811
1914,5812
2001,5813
2081,5814
2052,5815
2012,5816
1971,5817
1928,5818
1809,5819
1765,5820
1699,5821
1734,5822
1810,5823
1921,5824
1959,5825
2078,5826
2065,5827
1981,5828
1953,5829
1888,5830
1872,5831
1973,5832
2047,5833
2044,5834
1989,5835
1919,5836
1826,5837
1835,5838
1940,5839
2113,5840
2123,5841
2024,5842
1936,5843
1811,5844
1690,5845
1660,5846
1575,5847
1485,5848
1487,5849
1585,5850
1660,5851
1768,5852
1835,5853
1910,5854
1970,5855
2036,5856
2088,5857
2140,5858
2145,5859
2101,5860
2048,5861
1979,5862
1812,5863
1795,5864
1777,5865
1800,5866
1859,5867
1892,5868
1853,5869
1859,5870
1951,5871
1954,5872
2048,5873
2032,5874
2114,5875
2072,5876
2085,5877
2070,5878
1921,5879
1809,5880
1731,5881
1616,5882
1662,5883
1642,5884
1584,5885
1666,5886
1787,5887
1876,5888
1895,5889
1856,5890
1851,5891
1807,5892
1810,5893
1910,5894
2056,5895
2200,5896
2255,5897
2321,5898
2300,5899
2126,5900
1975,5901
1831,5902
1628,5903
1511,5904
1575,5905
1791,5906
1889,5907
1943,5908
1917,5909
1844,5910
1781,5911
1764,5912
1715,5913
1725,5914
1796,5915
1971,5916
1946,5917
1923,5918
2003,5919
2061,5920
1974,5921
1883,5922
1835,5923
1830,5924
1870,5925
1926,5926
1936,5927
1908,5928
1870,5929
1809,5930
1759,5931
1798,5932
1951,5933
2034,5934
2060,5935
2051,5936
1879,5937
1899,5938
1873,5939
1800,5940
1754,5941
1790,5942
1787,5943
1862,5944
1959,5945
2049,5946
2074,5947
1971,5948
1897,5949
1783,5950
1736,5951
1675,5952
1629,5953
1655,5954
1696,5955
1742,5956
1809,5957
1811,5958
1783,5959
1869,5960
1884,5961
1919,5962
1921,5963
1916,5964
1942,5965
1927,5966
1938,5967
1949,5968
2049,5969
2074,5970
2088,5971
2041,5972
1960,5973
1899,5974
1960,5975
1952,5976
1945,5977
1940,5978
1948,5979
1961,5980
1903,5981
1837,5982
1936,5983
2049,5984
2073,5985
2053,5986
1960,5987
1825,5988
1684,5989
1664,5990
1612,5991
1617,5992
1726,5993
1819,5994
1791,5995
1833,5996
1872,5997
1827,5998
1864,5999
1889,6000
1952,6001
2015,6002
2139,6003
2193,6004
2092,6005
1995,6006
1891,6007
1760,6008
1664,6009
1719,6010
1773,6011
1772,6012
1845,6013
1940,6014
2016,6015
2089,6016
2047,6017
1959,6018
1905,6019
1763,6020
1678,6021
1639,6022
1705,6023
1728,6024
1906,6025
1874,6026
1933,6027
2016,6028
2014,6029
1968,6030
1976,6031
1976,6032
1912,6033
1921,6034
1855,6035
1877,6036
1967,6037
1939,6038
1872,6039
1861,6040
1775,6041
1608,6042
1495,6043
1485,6044
1586,6045
1664,6046
1739,6047
1784,6048
1789,6049
1803,6050
1729,6051
1776,6052
1856,6053
2021,6054
2027,6055
2084,6056
2123,6057
2068,6058
2022,6059
1898,6060
1800,6061
1777,6062
1797,6063
1822,6064
1885,6065
1970,6066
2038,6067
2032,6068
2045,6069
2167,6070
2289,6071
2335,6072
2279,6073
2184,6074
2023,6075
1846,6076
1574,6077
1451,6078
1432,6079
1523,6080
1526,6081
1579,6082
1648,6083
1684,6084
1714,6085
1791,6086
1936,6087
2028,6088
2070,6089
2044,6090
1989,6091
1945,6092
1817,6093
1823,6094
1853,6095
1884,6096
1852,6097
1919,6098
1901,6099
1862,6100
1812,6101
1797,6102
1777,6103
1867,6104
1889,6105
1904,6106
1955,6107
1993,6108
1998,6109
2053,6110
1960,6111
1942,6112
1962,6113
2028,6114
1946,6115
1889,6116
1895,6117
1873,6118
1762,6119
1674,6120
1705,6121
1720,6122
1851,6123
1947,6124
1986,6125
2074,6126
2082,6127
2127,6128
2111,6129
2093,6130
2048,6131
2053,6132
2008,6133
1910,6134
1870,6135
1808,6136
1819,6137
1711,6138
1639,6139
1755,6140
1872,6141
2049,6142
2182,6143
2208,6144
2100,6145
1919,6146
1804,6147
1684,6148
1652,6149
1784,6150
1823,6151
1842,6152
1942,6153
1903,6154
1760,6155
1701,6156
1748,6157
1722,6158
1675,6159
1744,6160
1782,6161
1887,6162
1983,6163
1979,6164
1979,6165
1940,6166
1900,6167
1893,6168
1893,6169
1988,6170
2064,6171
2077,6172
2100,6173
2116,6174
2058,6175
1936,6176
1825,6177
1892,6178
1809,6179
1717,6180
1659,6181
1698,6182
2034,6183
2141,6184
2153,6185
2022,6186
1944,6187
1826,6188
1735,6189
1597,6190
1643,6191
1678,6192
1767,6193
1801,6194
1807,6195
1792,6196
1824,6197
1943,6198
1997,6199
1991,6200
2054,6201
2055,6202
1978,6203
1936,6204
1875,6205
1802,6206
1782,6207
1735,6208
1735,6209
1784,6210
1854,6211
1882,6212
1915,6213
1940,6214
1964,6215
1971,6216
1988,6217
1919,6218
1904,6219
1961,6220
2066,6221
2210,6222
2183,6223
2093,6224
2056,6225
1938,6226
1834,6227
1843,6228
1902,6229
1956,6230
1967,6231
2064,6232
2120,6233
2095,6234
2011,6235
1892,6236
1781,6237
1715,6238
1701,6239
1749,6240
1698,6241
1654,6242
1670,6243
1693,6244
1715,6245
1850,6246
1984,6247
2015,6248
2036,6249
1977,6250
1900,6251
1769,6252
1703,6253
1742,6254
1689,6255
1703,6256
1820,6257
1899,6258
1940,6259
1999,6260
2159,6261
2219,6262
2245,6263
2267,6264
2256,6265
2057,6266
1837,6267
1685,6268
1597,6269
1500,6270
1494,6271
1679,6272
1843,6273
1993,6274
2034,6275
2036,6276
2043,6277
2061,6278
2019,6279
1958,6280
1859,6281
1784,6282
1739,6283
1703,6284
1716,6285
1760,6286
1836,6287
1867,6288
1948,6289
2061,6290
2061,6291
2123,6292
2208,6293
2200,6294
2147,6295
2078,6296
2059,6297
1943,6298
1905,6299
1900,6300
1854,6301
1780,6302
1771,6303
1775,6304
1915,6305
1947,6306
2049,6307
2035,6308
2031,6309
1960,6310
1823,6311
1704,6312
1571,6313
1595,6314
1760,6315
1926,6316
2005,6317
1930,6318
1883,6319
1839,6320
1968,6321
2205,6322
2308,6323
2352,6324
2351,6325
2407,6326
2368,6327
2224,6328
2053,6329
1824,6330
1537,6331
1410,6332
1458,6333
1540,6334
1712,6335
1776,6336
1751,6337
1705,6338
1698,6339
1664,6340
1681,6341
1711,6342
1751,6343
1811,6344
1917,6345
2055,6346
2094,6347
2056,6348
2011,6349
1925,6350
1868,6351
1895,6352
1889,6353
1916,6354
1919,6355
1999,6356
1998,6357
2014,6358
2030,6359
1985,6360
2071,6361
2176,6362
2202,6363
2159,6364
2115,6365
2009,6366
1948,6367
1780,6368
1641,6369
1672,6370
1683,6371
1590,6372
1589,6373
1585,6374
1692,6375
1760,6376
1801,6377
1858,6378
1987,6379
2047,6380
2111,6381
2146,6382
2162,6383
2101,6384
1970,6385
1806,6386
1642,6387
1694,6388
1747,6389
1879,6390
1869,6391
2027,6392
2170,6393
2232,6394
2238,6395
2175,6396
2070,6397
1975,6398
1933,6399
1871,6400
1798,6401
1759,6402
1799,6403
1882,6404
1941,6405
1974,6406
2031,6407
2016,6408
1988,6409
1979,6410
1912,6411
1932,6412
1958,6413
2004,6414
2088,6415
2048,6416
1942,6417
1837,6418
1787,6419
1717,6420
1604,6421
1498,6422
1608,6423
1608,6424
1637,6425
1773,6426
1921,6427
1989,6428
2030,6429
2051,6430
1987,6431
1949,6432
1918,6433
1944,6434
2025,6435
2119,6436
2169,6437
2152,6438
2068,6439
1933,6440
1854,6441
1807,6442
1791,6443
1845,6444
1804,6445
1933,6446
1982,6447
1871,6448
1727,6449
1695,6450
1671,6451
1666,6452
1667,6453
1742,6454
1852,6455
1900,6456
1911,6457
2025,6458
2212,6459
2305,6460
2319,6461
2251,6462
2113,6463
1952,6464
1835,6465
1721,6466
1679,6467
1600,6468
1608,6469
1683,6470
1760,6471
1895,6472
1957,6473
2021,6474
2050,6475
2044,6476
2112,6477
2226,6478
2230,6479
2213,6480
2111,6481
1984,6482
1945,6483
2038,6484
1970,6485
1905,6486
1884,6487
1926,6488
1952,6489
2019,6490
2086,6491
2000,6492
1910,6493
1830,6494
1721,6495
1636,6496
1623,6497
1686,6498
1706,6499
1760,6500
1821,6501
1846,6502
1872,6503
1836,6504
1852,6505
1816,6506
1821,6507
1843,6508
1849,6509
1882,6510
1934,6511
1920,6512
1942,6513
1974,6514
2015,6515
2080,6516
2108,6517
2132,6518
2150,6519
2193,6520
2228,6521
2123,6522
2126,6523
2078,6524
1942,6525
1774,6526
1627,6527
1587,6528
1597,6529
1692,6530
1811,6531
1952,6532
1996,6533
2061,6534
2020,6535
1952,6536
1847,6537
1820,6538
1809,6539
1876,6540
1921,6541
1948,6542
1954,6543
1938,6544
2013,6545
2001,6546
1984,6547
1999,6548
1951,6549
1871,6550
1816,6551
1724,6552
1640,6553
1756,6554
1839,6555
1811,6556
1851,6557
1875,6558
1883,6559
1899,6560
1974,6561
2000,6562
1953,6563
1866,6564
1792,6565
1692,6566
1711,6567
1775,6568
1747,6569
1760,6570
1806,6571
1876,6572
1899,6573
1932,6574
1983,6575
2072,6576
2095,6577
2050,6578
1977,6579
1920,6580
1860,6581
1915,6582
1936,6583
1930,6584
2004,6585
2011,6586
2027,6587
2017,6588
2074,6589
2065,6590
2000,6591
1904,6592
1893,6593
1892,6594
1859,6595
1840,6596
1867,6597
1897,6598
1916,6599
1898,6600
1888,6601
1882,6602
1829,6603
1799,6604
1822,6605
1811,6606
1796,6607
1756,6608
1772,6609
1804,6610
1871,6611
2038,6612
2115,6613
2174,6614
2266,6615
2300,6616
2242,6617
2104,6618
1919,6619
1802,6620
1705,6621
1789,6622
1788,6623
1714,6624
1708,6625
1680,6626
1706,6627
1767,6628
1791,6629
1866,6630
1939,6631
1988,6632
1966,6633
2027,6634
2124,6635
2104,6636
2071,6637
1993,6638
2048,6639
2223,6640
2258,6641
2231,6642
2156,6643
2090,6644
1984,6645
1763,6646
1578,6647
1527,6648
1509,6649
1539,6650
1615,6651
1717,6652
1741,6653
1821,6654
1813,6655
1839,6656
1874,6657
1837,6658
1873,6659
1876,6660
1843,6661
1831,6662
1795,6663
1792,6664
1803,6665
1795,6666
1795,6667
1818,6668
1842,6669
1881,6670
1920,6671
1980,6672
1995,6673
1987,6674
1952,6675
1923,6676
1966,6677
1985,6678
1992,6679
2090,6680
2072,6681
2007,6682
1982,6683
1910,6684
1863,6685
1805,6686
1749,6687
1782,6688
1807,6689
1840,6690
1853,6691
1894,6692
1942,6693
1948,6694
1973,6695
2080,6696
2100,6697
2075,6698
2051,6699
1950,6700
1840,6701
1803,6702
1760,6703
1703,6704
1650,6705
1707,6706
1736,6707
1776,6708
1787,6709
1824,6710
1842,6711
1856,6712
1890,6713
1891,6714
1924,6715
1953,6716
1925,6717
1983,6718
2192,6719
2284,6720
2324,6721
2386,6722
2328,6723
2168,6724
2064,6725
2052,6726
1911,6727
1796,6728
1771,6729
1767,6730
1715,6731
1665,6732
1573,6733
1536,6734
1575,6735
1721,6736
1723,6737
1719,6738
1740,6739
1773,6740
1776,6741
1833,6742
1874,6743
1983,6744
2180,6745
2233,6746
2287,6747
2315,6748
2367,6749
2355,6750
2331,6751
2163,6752
1985,6753
1888,6754
1771,6755
1687,6756
1646,6757
1604,6758
1612,6759
1652,6760
1643,6761
1729,6762
1823,6763
1806,6764
1821,6765
1817,6766
1816,6767
1805,6768
1761,6769
1737,6770
1762,6771
1810,6772
1838,6773
1834,6774
1899,6775
1890,6776
1929,6777
1913,6778
1929,6779
1899,6780
1884,6781
1859,6782
1800,6783
1779,6784
1727,6785
1796,6786
1810,6787
1840,6788
1863,6789
1858,6790
1839,6791
1858,6792
1881,6793
1902,6794
1941,6795
1946,6796
1938,6797
1918,6798
1905,6799
1976,6800
2174,6801
2242,6802
2207,6803
2073,6804
1931,6805
1717,6806
1646,6807
1551,6808
1483,6809
1587,6810
1632,6811
1691,6812
1723,6813
1747,6814
1786,6815
1842,6816
1852,6817
1879,6818
1890,6819
1945,6820
1942,6821
1944,6822
1913,6823
1891,6824
1918,6825
1879,6826
1950,6827
1984,6828
1960,6829
1968,6830
1919,6831
1892,6832
1884,6833
1932,6834
1955,6835
1971,6836
1910,6837
1872,6838
1800,6839
1760,6840
1775,6841
1798,6842
1846,6843
1851,6844
1838,6845
1799,6846
1869,6847
1912,6848
1838,6849
1875,6850
1895,6851
1882,6852
1835,6853
1833,6854
1845,6855
1875,6856
1893,6857
1859,6858
1781,6859
1783,6860
1811,6861
1789,6862
1747,6863
1731,6864
1739,6865
1745,6866
1732,6867
1823,6868
1874,6869
1889,6870
1872,6871
1849,6872
1882,6873
1840,6874
1862,6875
2018,6876
2081,6877
2082,6878
2028,6879
2006,6880
1972,6881
1917,6882
1930,6883
1881,6884
1847,6885
1819,6886
1792,6887
1803,6888
1792,6889
1895,6890
1972,6891
1996,6892
2016,6893
2016,6894
1996,6895
1930,6896
1927,6897
1876,6898
1835,6899
1799,6900
1754,6901
1749,6902
1787,6903
1789,6904
1808,6905
1751,6906
1740,6907
1720,6908
1728,6909
1754,6910
1755,6911
1778,6912
1821,6913
1857,6914
1867,6915
1930,6916
1912,6917
1947,6918
1951,6919
1949,6920
1991,6921
1962,6922
1937,6923
1888,6924
1826,6925
1803,6926
1801,6927
1803,6928
1828,6929
1832,6930
1859,6931
1889,6932
1911,6933
1922,6934
1885,6935
1914,6936
1883,6937
1844,6938
1844,6939
1831,6940
1860,6941
1816,6942
1855,6943
1887,6944
1874,6945
1877,6946
1944,6947
2071,6948
2103,6949
2071,6950
2002,6951
1970,6952
1879,6953
1793,6954
1807,6955
1819,6956
1811,6957
1878,6958
1944,6959
1996,6960
2047,6961
2061,6962
2003,6963
1944,6964
1898,6965
1872,6966
1835,6967
1897,6968
1868,6969
1849,6970
1866,6971
1856,6972
1904,6973
1916,6974
1972,6975
1970,6976
1974,6977
1921,6978
1925,6979
1863,6980
1815,6981
1804,6982
1774,6983
1710,6984
1718,6985
1765,6986
1763,6987
1781,6988
1828,6989
1842,6990
1863,6991
1863,6992
1921,6993
1980,6994
1985,6995
1992,6996
1947,6997
1951,6998
1898,6999
1852,7000
1800,7001
1793,7002
1834,7003
1893,7004
1911,7005
1923,7006
1886,7007
1904,7008
1868,7009
1832,7010
1855,7011
1838,7012
1868,7013
1842,7014
1851,7015
1868,7016
1859,7017
1839,7018
1852,7019
1837,7020
1888,7021
1917,7022
1944,7023
1940,7024
1932,7025
1911,7026
1897,7027
1974,7028
2060,7029
2134,7030
2109,7031
2081,7032
2023,7033
1965,7034
1848,7035
1749,7036
1664,7037
1701,7038
1739,7039
1807,7040
1823,7041
1801,7042
1894,7043
1916,7044
1923,7045
1933,7046
1915,7047
1878,7048
1834,7049
1829,7050
1863,7051
1880,7052
1878,7053
1967,7054
2001,7055
2020,7056
2027,7057
2034,7058
2012,7059
1998,7060
1941,7061
1927,7062
1934,7063
1958,7064
1948,7065
1946,7066
1929,7067
1885,7068
1809,7069
1764,7070
1748,7071
1768,7072
1779,7073
1738,7074
1763,7075
1891,7076
1992,7077
2027,7078
1995,7079
1936,7080
1880,7081
1814,7082
1774,7083
1763,7084
1766,7085
1774,7086
1819,7087
1893,7088
1980,7089
2081,7090
2111,7091
2093,7092
2102,7093
2128,7094
2039,7095
1955,7096
1884,7097
1780,7098
1775,7099
1690,7100
1773,7101
1779,7102
1796,7103
1802,7104
1803,7105
1846,7106
1900,7107
1895,7108
1917,7109
1914,7110
1924,7111
1925,7112
1928,7113
1944,7114
1960,7115
1967,7116
1937,7117
1883,7118
1808,7119
1777,7120
1824,7121
1863,7122
1810,7123
1819,7124
1791,7125
1805,7126
1838,7127
1847,7128
1868,7129
1966,7130
2084,7131
2292,7132
2312,7133
2305,7134
2244,7135
2198,7136
2083,7137
1998,7138
1933,7139
1803,7140
1673,7141
1676,7142
1699,7143
1736,7144
1771,7145
1801,7146
1785,7147
1791,7148
1782,7149
1767,7150
1785,7151
1820,7152
1862,7153
1895,7154
2011,7155
1984,7156
1960,7157
1909,7158
1968,7159
1980,7160
1980,7161
1969,7162
1939,7163
1905,7164
1826,7165
1814,7166
1791,7167
1761,7168
1800,7169
1820,7170
1847,7171
1904,7172
1900,7173
1933,7174
1939,7175
1931,7176
1908,7177
1960,7178
1959,7179
1944,7180
1939,7181
1986,7182
1956,7183
1914,7184
1979,7185
1932,7186
1856,7187
1852,7188
1850,7189
1891,7190
1882,7191
1896,7192
1869,7193
1868,7194
1891,7195
1901,7196
1918,7197
1928,7198
1931,7199
1941,7200
1892,7201
1936,7202
1956,7203
1942,7204
1931,7205
1840,7206
1799,7207
1744,7208
1733,7209
1759,7210
1890,7211
1927,7212
1972,7213
2024,7214
2003,7215
2010,7216
2029,7217
2036,7218
2024,7219
1977,7220
2029,7221
2071,7222
2119,7223
2216,7224
2192,7225
2095,7226
1975,7227
1855,7228
1776,7229
1656,7230
1647,7231
1688,7232
1746,7233
1837,7234
1924,7235
1940,7236
1916,7237
1935,7238
1930,7239
1844,7240
1864,7241
1888,7242
1896,7243
1936,7244
1935,7245
1940,7246
1869,7247
1859,7248
1808,7249
1824,7250
1895,7251
1943,7252
1980,7253
1986,7254
1984,7255
1971,7256
1909,7257
1876,7258
1857,7259
1823,7260
1866,7261
1835,7262
1843,7263
1900,7264
1888,7265
1945,7266
1955,7267
1941,7268
1896,7269
1873,7270
1843,7271
1830,7272
1854,7273
1862,7274
1927,7275
1953,7276
2019,7277
1998,7278
1993,7279
1999,7280
1950,7281
1951,7282
1952,7283
2016,7284
1986,7285
1950,7286
1913,7287
1912,7288
1908,7289
1874,7290
1894,7291
1904,7292
1944,7293
2000,7294
2019,7295
2055,7296
2024,7297
1950,7298
1954,7299
2000,7300
2032,7301
1974,7302
1920,7303
1854,7304
1784,7305
1721,7306
1774,7307
1732,7308
1783,7309
1839,7310
1888,7311
1939,7312
1968,7313
1967,7314
1961,7315
1896,7316
1937,7317
1936,7318
1991,7319
1995,7320
1984,7321
1953,7322
1904,7323
1855,7324
1887,7325
1857,7326
1875,7327
1879,7328
1870,7329
1867,7330
1887,7331
1839,7332
1884,7333
1861,7334
1889,7335
1895,7336
1927,7337
1959,7338
1977,7339
2025,7340
2053,7341
2043,7342
2022,7343
2009,7344
1941,7345
1955,7346
1908,7347
1852,7348
1881,7349
1921,7350
1950,7351
1919,7352
1921,7353
1953,7354
1927,7355
1958,7356
1996,7357
2035,7358
2128,7359
2144,7360
2192,7361
2191,7362
2143,7363
2063,7364
1988,7365
1878,7366
1771,7367
1588,7368
1588,7369
1669,7370
1692,7371
1732,7372
1768,7373
1791,7374
1846,7375
1850,7376
1914,7377
1907,7378
1924,7379
1958,7380
1944,7381
1936,7382
1948,7383
1988,7384
2011,7385
1970,7386
1928,7387
1896,7388
1867,7389
1812,7390
1808,7391
1824,7392
1912,7393
1980,7394
2034,7395
2029,7396
2045,7397
2022,7398
1991,7399
1959,7400
1936,7401
1924,7402
1863,7403
1862,7404
1856,7405
1840,7406
1850,7407
1863,7408
1878,7409
1864,7410
1888,7411
1952,7412
2019,7413
2050,7414
2103,7415
2066,7416
2049,7417
2073,7418
2046,7419
1995,7420
1892,7421
1795,7422
1825,7423
1802,7424
1795,7425
1770,7426
1781,7427
1869,7428
1909,7429
1955,7430
1993,7431
2013,7432
2147,7433
2223,7434
2232,7435
2183,7436
2093,7437
1982,7438
1865,7439
1789,7440
1784,7441
1781,7442
1825,7443
1841,7444
1935,7445
2031,7446
2087,7447
2107,7448
2052,7449
2040,7450
1975,7451
1904,7452
1828,7453
1792,7454
1726,7455
1741,7456
1817,7457
1816,7458
1849,7459
1897,7460
1930,7461
1893,7462
1889,7463
1887,7464
1866,7465
1854,7466
1843,7467
1846,7468
1848,7469
1875,7470
1953,7471
1975,7472
2038,7473
2044,7474
2036,7475
2056,7476
2079,7477
2051,7478
2001,7479
1936,7480
1933,7481
1934,7482
1935,7483
1960,7484
1984,7485
1978,7486
1941,7487
1913,7488
1855,7489
1901,7490
1852,7491
1848,7492
1869,7493
1926,7494
1903,7495
1875,7496
1875,7497
1848,7498
1816,7499
1793,7500
1803,7501
1824,7502
1911,7503
1931,7504
1973,7505
1997,7506
2033,7507
2021,7508
2005,7509
1963,7510
1952,7511
1956,7512
1964,7513
1979,7514
1991,7515
2033,7516
2022,7517
2001,7518
2008,7519
2024,7520
1993,7521
1943,7522
1955,7523
1907,7524
1897,7525
1963,7526
1982,7527
2006,7528
2006,7529
1996,7530
1954,7531
1942,7532
1965,7533
1955,7534
1941,7535
2008,7536
2057,7537
2086,7538
2054,7539
2093,7540
2104,7541
2132,7542
2097,7543
2073,7544
1987,7545
1940,7546
1877,7547
1862,7548
1833,7549
1865,7550
1837,7551
1823,7552
1837,7553
1856,7554
2112,7555
2418,7556
2562,7557
2544,7558
2451,7559
2264,7560
2017,7561
1767,7562
1577,7563
1415,7564
1338,7565
1432,7566
1530,7567
1572,7568
1660,7569
1705,7570
1754,7571
1851,7572
1910,7573
1944,7574
1995,7575
1992,7576
1983,7577
1977,7578
1961,7579
1904,7580
1950,7581
1925,7582
1967,7583
2089,7584
2148,7585
2192,7586
2077,7587
1988,7588
1865,7589
1773,7590
1732,7591
1690,7592
1724,7593
1759,7594
1880,7595
1950,7596
1960,7597
2037,7598
2120,7599
2105,7600
2087,7601
2050,7602
2035,7603
2023,7604
1926,7605
1904,7606
1855,7607
1876,7608
1928,7609
1981,7610
1948,7611
1888,7612
1852,7613
1823,7614
1824,7615
1925,7616
1968,7617
2000,7618
2011,7619
2077,7620
2044,7621
1958,7622
1974,7623
1918,7624
1914,7625
1901,7626
1904,7627
1928,7628
1848,7629
1869,7630
1916,7631
1886,7632
1973,7633
2011,7634
2025,7635
2067,7636
2126,7637
2121,7638
2098,7639
2038,7640
1998,7641
1950,7642
1956,7643
1916,7644
1886,7645
1831,7646
1853,7647
1822,7648
1807,7649
1785,7650
1842,7651
1843,7652
1871,7653
1887,7654
1870,7655
1910,7656
1903,7657
1928,7658
1907,7659
1922,7660
1890,7661
1870,7662
1942,7663
1998,7664
2032,7665
2096,7666
2136,7667
2108,7668
2117,7669
2100,7670
2010,7671
1957,7672
1923,7673
1919,7674
1795,7675
1822,7676
1872,7677
1853,7678
1775,7679
1727,7680
1800,7681
1852,7682
1855,7683
1846,7684
1919,7685
2016,7686
2003,7687
2012,7688
1976,7689
1934,7690
1907,7691
1919,7692
1958,7693
1989,7694
1967,7695
1895,7696
1877,7697
1904,7698
1951,7699
1950,7700
1947,7701
1988,7702
1940,7703
1848,7704
1826,7705
1863,7706
1856,7707
1885,7708
1881,7709
1930,7710
2012,7711
2018,7712
2092,7713
2156,7714
2150,7715
2123,7716
2050,7717
1974,7718
1899,7719
1721,7720
1752,7721
1792,7722
1851,7723
1840,7724
1785,7725
1838,7726
1892,7727
1927,7728
1988,7729
2037,7730
2089,7731
2139,7732
2092,7733
2049,7734
2100,7735
2141,7736
2159,7737
2124,7738
2092,7739
2032,7740
1948,7741
1816,7742
1788,7743
1799,7744
1755,7745
1775,7746
1716,7747
1675,7748
1708,7749
1723,7750
1788,7751
1805,7752
1908,7753
1981,7754
1982,7755
1931,7756
1938,7757
1944,7758
1919,7759
1852,7760
1876,7761
1886,7762
1886,7763
1896,7764
1891,7765
1903,7766
1911,7767
1885,7768
1906,7769
1955,7770
1990,7771
2012,7772
2004,7773
1986,7774
1984,7775
1968,7776
1972,7777
2010,7778
2080,7779
2119,7780
2077,7781
2029,7782
2006,7783
1945,7784
1851,7785
1860,7786
1815,7787
1867,7788
1976,7789
2011,7790
2032,7791
2044,7792
2079,7793
2117,7794
2087,7795
2001,7796
1936,7797
1824,7798
1756,7799
1806,7800
1787,7801
1776,7802
1772,7803
1788,7804
1893,7805
1930,7806
1888,7807
1880,7808
1859,7809
1823,7810
1808,7811
1814,7812
1901,7813
2053,7814
2179,7815
2179,7816
2099,7817
2075,7818
2029,7819
1993,7820
1919,7821
1883,7822
1816,7823
1793,7824
1797,7825
1799,7826
1812,7827
1876,7828
2029,7829
2138,7830
2196,7831
2223,7832
2182,7833
2100,7834
1999,7835
1925,7836
1864,7837
1798,7838
1809,7839
1897,7840
1928,7841
1939,7842
1940,7843
2017,7844
2068,7845
2048,7846
2027,7847
1976,7848
1880,7849
1798,7850
1722,7851
1746,7852
1763,7853
1803,7854
1842,7855
1878,7856
1910,7857
1976,7858
1985,7859
1974,7860
1925,7861
1891,7862
1820,7863
1837,7864
1897,7865
1981,7866
1977,7867
1984,7868
2031,7869
2010,7870
1947,7871
1979,7872
1896,7873
1870,7874
1889,7875
1935,7876
1906,7877
1871,7878
1844,7879
1833,7880
1829,7881
1839,7882
1896,7883
1881,7884
1914,7885
1899,7886
1875,7887
1902,7888
1890,7889
1911,7890
1904,7891
1920,7892
1894,7893
1894,7894
1939,7895
1968,7896
1940,7897
1970,7898
2018,7899
2088,7900
2088,7901
2084,7902
2045,7903
2003,7904
1956,7905
1919,7906
1951,7907
1892,7908
1896,7909
1892,7910
1858,7911
1849,7912
1781,7913
1797,7914
1900,7915
1941,7916
1964,7917
1975,7918
1988,7919
1987,7920
1999,7921
2028,7922
2103,7923
2172,7924
2200,7925
2152,7926
2093,7927
1964,7928
1843,7929
1720,7930
1704,7931
1687,7932
1736,7933
1742,7934
1796,7935
1857,7936
1894,7937
1938,7938
1948,7939
1951,7940
1898,7941
1906,7942
1929,7943
1898,7944
1922,7945
1895,7946
1905,7947
1930,7948
1969,7949
2041,7950
2046,7951
2032,7952
2013,7953
1921,7954
1912,7955
1862,7956
1871,7957
1814,7958
1808,7959
1816,7960
1842,7961
1895,7962
1928,7963
1875,7964
1896,7965
1903,7966
1898,7967
1911,7968
1904,7969
1905,7970
1897,7971
1900,7972
1916,7973
1915,7974
2004,7975
2068,7976
2098,7977
2113,7978
2095,7979
2023,7980
1938,7981
1844,7982
1839,7983
1822,7984
1834,7985
1887,7986
1875,7987
1916,7988
1936,7989
1912,7990
1888,7991
1837,7992
1889,7993
1910,7994
1959,7995
1979,7996
1982,7997
1981,7998
1961,7999
1925,8000
1938,8001
1925,8002
1904,8003
1864,8004
1828,8005
1857,8006
1862,8007
1930,8008
1945,8009
1957,8010
1972,8011
2004,8012
2001,8013
2021,8014
1981,8015
1959,8016
1926,8017
1944,8018
1950,8019
1954,8020
1951,8021
1915,8022
1956,8023
1904,8024
1860,8025
1833,8026
1807,8027
1791,8028
1791,8029
1858,8030
1877,8031
1960,8032
2039,8033
2142,8034
2220,8035
2232,8036
2268,8037
2307,8038
2187,8039
2072,8040
1945,8041
1804,8042
1779,8043
1824,8044
1804,8045
1827,8046
1831,8047
1825,8048
1795,8049
1793,8050
1867,8051
1890,8052
1949,8053
1966,8054
1887,8055
1882,8056
1925,8057
1982,8058
1957,8059
1983,8060
1962,8061
1925,8062
1904,8063
1879,8064
1884,8065
1882,8066
1884,8067
1943,8068
1915,8069
1949,8070
2016,8071
2024,8072
2045,8073
2069,8074
2013,8075
1955,8076
1918,8077
1857,8078
1839,8079
1844,8080
1813,8081
1829,8082
1870,8083
1898,8084
1910,8085
1970,8086
1947,8087
1994,8088
1940,8089
1905,8090
1877,8091
1871,8092
1860,8093
1847,8094
1907,8095
1936,8096
1966,8097
1952,8098
1923,8099
1934,8100
2103,8101
2230,8102
2322,8103
2296,8104
2214,8105
2140,8106
2003,8107
1856,8108
1773,8109
1704,8110
1701,8111
1779,8112
1865,8113
1927,8114
1919,8115
1976,8116
1959,8117
1959,8118
1975,8119
1988,8120
1940,8121
1951,8122
1994,8123
1917,8124
1937,8125
1907,8126
1859,8127
1884,8128
1896,8129
2051,8130
2055,8131
2065,8132
2054,8133
2023,8134
1939,8135
1879,8136
1837,8137
1789,8138
1800,8139
1848,8140
1859,8141
1866,8142
1869,8143
1850,8144
1854,8145
1833,8146
1786,8147
1801,8148
1810,8149
1804,8150
1889,8151
1965,8152
2019,8153
2080,8154
2134,8155
2201,8156
2267,8157
2239,8158
2201,8159
2102,8160
2004,8161
1879,8162
1813,8163
1780,8164
1840,8165
1949,8166
2000,8167
2007,8168
2000,8169
1946,8170
1900,8171
1847,8172
1769,8173
1781,8174
1846,8175
1888,8176
1917,8177
1866,8178
1869,8179
1945,8180
2024,8181
2054,8182
2050,8183
1984,8184
1943,8185
1875,8186
1842,8187
1872,8188
1846,8189
1828,8190
1811,8191
1868,8192
1905,8193
1906,8194
1942,8195
1991,8196
2048,8197
2189,8198
2278,8199
2238,8200
2226,8201
2159,8202
2055,8203
1952,8204
1872,8205
1846,8206
1964,8207
2004,8208
1974,8209
1979,8210
1893,8211
1888,8212
1902,8213
1939,8214
1956,8215
1934,8216
1943,8217
1874,8218
1900,8219
1899,8220
1918,8221
1906,8222
1940,8223
1862,8224
1793,8225
1719,8226
1685,8227
1788,8228
1924,8229
1937,8230
1980,8231
1992,8232
1973,8233
1983,8234
2040,8235
2080,8236
2055,8237
1995,8238
1953,8239
1924,8240
1931,8241
1877,8242
1822,8243
1783,8244
1798,8245
1823,8246
1808,8247
1846,8248
1920,8249
1963,8250
1991,8251
1996,8252
2050,8253
2051,8254
2129,8255
2112,8256
2116,8257
2032,8258
1941,8259
1866,8260
1783,8261
1767,8262
1804,8263
1757,8264
1738,8265
1780,8266
1809,8267
1850,8268
1951,8269
1975,8270
2015,8271
2006,8272
1994,8273
1988,8274
1996,8275
2029,8276
2048,8277
2027,8278
1984,8279
1997,8280
1943,8281
1875,8282
1835,8283
1848,8284
1823,8285
1735,8286
1791,8287
1928,8288
2043,8289
2076,8290
2069,8291
2084,8292
2049,8293
1927,8294
1878,8295
1825,8296
1852,8297
1893,8298
1964,8299
2033,8300
2050,8301
2082,8302
2053,8303
2122,8304
2166,8305
2091,8306
2019,8307
1871,8308
1781,8309
1823,8310
1820,8311
1851,8312
1872,8313
1833,8314
1810,8315
1848,8316
1880,8317
1902,8318
1972,8319
1931,8320
1888,8321
1841,8322
1807,8323
1772,8324
1831,8325
1968,8326
2013,8327
1991,8328
1972,8329
1975,8330
1984,8331
2007,8332
2023,8333
2055,8334
2073,8335
2033,8336
1958,8337
1936,8338
1844,8339
1775,8340
1795,8341
1821,8342
1856,8343
1888,8344
1995,8345
2009,8346
2012,8347
1991,8348
1889,8349
1875,8350
1764,8351
1672,8352
1586,8353
1621,8354
1716,8355
1853,8356
1968,8357
1999,8358
2083,8359
2095,8360
2067,8361
2007,8362
1904,8363
1832,8364
1830,8365
1841,8366
1900,8367
1930,8368
1915,8369
2003,8370
2033,8371
2004,8372
2072,8373
2051,8374
2016,8375
2016,8376
1980,8377
1943,8378
1924,8379
1909,8380
1826,8381
1835,8382
1854,8383
1868,8384
1910,8385
1890,8386
1906,8387
1896,8388
1883,8389
1894,8390
1879,8391
1845,8392
1895,8393
1962,8394
1970,8395
1992,8396
1976,8397
2039,8398
2038,8399
2027,8400
1993,8401
1951,8402
2000,8403
2079,8404
2207,8405
2129,8406
2088,8407
1999,8408
1850,8409
1735,8410
1677,8411
1585,8412
1625,8413
1782,8414
1962,8415
2011,8416
1965,8417
1961,8418
1931,8419
1903,8420
1913,8421
1930,8422
1905,8423
1875,8424
1891,8425
1921,8426
1879,8427
1892,8428
1863,8429
1907,8430
1887,8431
1876,8432
1863,8433
1945,8434
1980,8435
2007,8436
2033,8437
1988,8438
1956,8439
1930,8440
1893,8441
1885,8442
1898,8443
1904,8444
1903,8445
1895,8446
1908,8447
1930,8448
1839,8449
1959,8450
2045,8451
2180,8452
2217,8453
2231,8454
2207,8455
2180,8456
2099,8457
1999,8458
1931,8459
1812,8460
1770,8461
1761,8462
1735,8463
1724,8464
1714,8465
1833,8466
1910,8467
2011,8468
2024,8469
2041,8470
1977,8471
1964,8472
1848,8473
1834,8474
1826,8475
1797,8476
1837,8477
1868,8478
1886,8479
1875,8480
1854,8481
1884,8482
1838,8483
1808,8484
1775,8485
1855,8486
1860,8487
1847,8488
1881,8489
1902,8490
1900,8491
1883,8492
1911,8493
1946,8494
2009,8495
2020,8496
2016,8497
2068,8498
2044,8499
1997,8500
1971,8501
1909,8502
1893,8503
2019,8504
2087,8505
2119,8506
2098,8507
2034,8508
1949,8509
1873,8510
1876,8511
1845,8512
1945,8513
2095,8514
2144,8515
2182,8516
2239,8517
2149,8518
2039,8519
1947,8520
1823,8521
1777,8522
1747,8523
1789,8524
1797,8525
1820,8526
1779,8527
1758,8528
1743,8529
1776,8530
1830,8531
1903,8532
1964,8533
1974,8534
2028,8535
2072,8536
2078,8537
2085,8538
2070,8539
2218,8540
2314,8541
2316,8542
2262,8543
2100,8544
1923,8545
1777,8546
1670,8547
1632,8548
1591,8549
1649,8550
1707,8551
1776,8552
1812,8553
1865,8554
1904,8555
1928,8556
1960,8557
1970,8558
2006,8559
1947,8560
1901,8561
1889,8562
1842,8563
1768,8564
1799,8565
1880,8566
1874,8567
1833,8568
1868,8569
1889,8570
1970,8571
1967,8572
1990,8573
2018,8574
1969,8575
1995,8576
1953,8577
1943,8578
1942,8579
1918,8580
1872,8581
1865,8582
1855,8583
1857,8584
1821,8585
1844,8586
1891,8587
1917,8588
1895,8589
2011,8590
2058,8591
2088,8592
2120,8593
2125,8594
2066,8595
2011,8596
1864,8597
1866,8598
1832,8599
1859,8600
1882,8601
1876,8602
1895,8603
1920,8604
1962,8605
2037,8606
2214,8607
2347,8608
2383,8609
2409,8610
2246,8611
2099,8612
1921,8613
1728,8614
1595,8615
1647,8616
1697,8617
1718,8618
1727,8619
1759,8620
1799,8621
1849,8622
1866,8623
1901,8624
1885,8625
1870,8626
1896,8627
1937,8628
1928,8629
1934,8630
2041,8631
2091,8632
2104,8633
2066,8634
2025,8635
1912,8636
1839,8637
1827,8638
1887,8639
1882,8640
1883,8641
2048,8642
2219,8643
2299,8644
2286,8645
2217,8646
2135,8647
2055,8648
1966,8649
1931,8650
1825,8651
1790,8652
1711,8653
1624,8654
1690,8655
1781,8656
1869,8657
1910,8658
1932,8659
1996,8660
1988,8661
1948,8662
1887,8663
1883,8664
1805,8665
1814,8666
1923,8667
1992,8668
1970,8669
1943,8670
1877,8671
1842,8672
1831,8673
1854,8674
1884,8675
1899,8676
1951,8677
1956,8678
1919,8679
1902,8680
1864,8681
1838,8682
1918,8683
1941,8684
1931,8685
1871,8686
1860,8687
1901,8688
1887,8689
1911,8690
1941,8691
1994,8692
1931,8693
1933,8694
1901,8695
1901,8696
1923,8697
1894,8698
1947,8699
1997,8700
2028,8701
2034,8702
2010,8703
2031,8704
2007,8705
2050,8706
2133,8707
2165,8708
2132,8709
2109,8710
1973,8711
1850,8712
1686,8713
1680,8714
1721,8715
1865,8716
2016,8717
2048,8718
1975,8719
1927,8720
1919,8721
1854,8722
1841,8723
1895,8724
1911,8725
1959,8726
1928,8727
1935,8728
1886,8729
1904,8730
1847,8731
1820,8732
1847,8733
1935,8734
1941,8735
1943,8736
1947,8737
1939,8738
1902,8739
1873,8740
1868,8741
1886,8742
1938,8743
1939,8744
1963,8745
1923,8746
1893,8747
1897,8748
1892,8749
1933,8750
1944,8751
1936,8752
1957,8753
1982,8754
1962,8755
1936,8756
1934,8757
1924,8758
1879,8759
1864,8760
1843,8761
1859,8762
1897,8763
1973,8764
2047,8765
2078,8766
2023,8767
1935,8768
1920,8769
1829,8770
1770,8771
1798,8772
1869,8773
1984,8774
2019,8775
2063,8776
2165,8777
2317,8778
2408,8779
2411,8780
2379,8781
2244,8782
2122,8783
1963,8784
1776,8785
1551,8786
1461,8787
1490,8788
1652,8789
1758,8790
1821,8791
1914,8792
1899,8793
1965,8794
1984,8795
2023,8796
2027,8797
2081,8798
2103,8799
2028,8800
2013,8801
1895,8802
1810,8803
1750,8804
1713,8805
1730,8806
1780,8807
1868,8808
1968,8809
2068,8810
2143,8811
2132,8812
2144,8813
2067,8814
1979,8815
1909,8816
1820,8817
1874,8818
1829,8819
1849,8820
1832,8821
1830,8822
1859,8823
1862,8824
1895,8825
1917,8826
1978,8827
2025,8828
1988,8829
1980,8830
1959,8831
1923,8832
1903,8833
1895,8834
1894,8835
1933,8836
1986,8837
1985,8838
1963,8839
1978,8840
1944,8841
1901,8842
1874,8843
1863,8844
1824,8845
1822,8846
1877,8847
1925,8848
1923,8849
1926,8850
1967,8851
2000,8852
1999,8853
2009,8854
1978,8855
2014,8856
1991,8857
2002,8858
2002,8859
2018,8860
1980,8861
2023,8862
2085,8863
2081,8864
2083,8865
2091,8866
2131,8867
2058,8868
2004,8869
1923,8870
1880,8871
1804,8872
1786,8873
1838,8874
1814,8875
1833,8876
1865,8877
1906,8878
1955,8879
1943,8880
1984,8881
1955,8882
1924,8883
1900,8884
1914,8885
1836,8886
1938,8887
1894,8888
1896,8889
1877,8890
1858,8891
1912,8892
1952,8893
1982,8894
2043,8895
2107,8896
2172,8897
2136,8898
2101,8899
2051,8900
1975,8901
1910,8902
1890,8903
1859,8904
1813,8905
1821,8906
1894,8907
1894,8908
1907,8909
1954,8910
1921,8911
1936,8912
1936,8913
1902,8914
1946,8915
1912,8916
1963,8917
1929,8918
1913,8919
1909,8920
1929,8921
1997,8922
2045,8923
2061,8924
2000,8925
1895,8926
1838,8927
1787,8928
1781,8929
1804,8930
1896,8931
1958,8932
1986,8933
2020,8934
1999,8935
2014,8936
1983,8937
2023,8938
2025,8939
2051,8940
2070,8941
2076,8942
2034,8943
1969,8944
1965,8945
1962,8946
1921,8947
1908,8948
1921,8949
1898,8950
1902,8951
1909,8952
1907,8953
1974,8954
1966,8955
1972,8956
1971,8957
2004,8958
1968,8959
1904,8960
1907,8961
1933,8962
1911,8963
1915,8964
1893,8965
1847,8966
1826,8967
1861,8968
1945,8969
2007,8970
1996,8971
2001,8972
2033,8973
1991,8974
1930,8975
1912,8976
1867,8977
1858,8978
1828,8979
1831,8980
1891,8981
1941,8982
1974,8983
1973,8984
1960,8985
1914,8986
1882,8987
1911,8988
1947,8989
1943,8990
1984,8991
1984,8992
1966,8993
1951,8994
1974,8995
1999,8996
2066,8997
2088,8998
2091,8999
2021,9000
2042,9001
1992,9002
1919,9003
1938,9004
1924,9005
1933,9006
1932,9007
1917,9008
1928,9009
1904,9010
1846,9011
1789,9012
1850,9013
1884,9014
1936,9015
1961,9016
1975,9017
1948,9018
1937,9019
1907,9020
1882,9021
1888,9022
1893,9023
1892,9024
1920,9025
1895,9026
1884,9027
1876,9028
1870,9029
1836,9030
1814,9031
1806,9032
1839,9033
1865,9034
1971,9035
2015,9036
2071,9037
2056,9038
2026,9039
2037,9040
1976,9041
1965,9042
1919,9043
1920,9044
1922,9045
1908,9046
1903,9047
1938,9048
1939,9049
1958,9050
2010,9051
2025,9052
2015,9053
2129,9054
2240,9055
2256,9056
2189,9057
2165,9058
2119,9059
2086,9060
2025,9061
1971,9062
1954,9063
2014,9064
2032,9065
2058,9066
2055,9067
1964,9068
1890,9069
1810,9070
1774,9071
1755,9072
1806,9073
1924,9074
1986,9075
2059,9076
2123,9077
2084,9078
1964,9079
1863,9080
1813,9081
1771,9082
1775,9083
1809,9084
1820,9085
1834,9086
1875,9087
1983,9088
2022,9089
2062,9090
2053,9091
2081,9092
2096,9093
1998,9094
1912,9095
1936,9096
1890,9097
1942,9098
2002,9099
2057,9100
2228,9101
2404,9102
2412,9103
2354,9104
2228,9105
2057,9106
1850,9107
1664,9108
1579,9109
1540,9110
1630,9111
1711,9112
1754,9113
1800,9114
1869,9115
1894,9116
1898,9117
1888,9118
1901,9119
1907,9120
1907,9121
1905,9122
1882,9123
1897,9124
1888,9125
1868,9126
1953,9127
1993,9128
1992,9129
1961,9130
1944,9131
1988,9132
1999,9133
1959,9134
1985,9135
2036,9136
2043,9137
2113,9138
2091,9139
2086,9140
2064,9141
1967,9142
1874,9143
1811,9144
1694,9145
1652,9146
1697,9147
1754,9148
1924,9149
2052,9150
2076,9151
2095,9152
2060,9153
2044,9154
1984,9155
1985,9156
2136,9157
2311,9158
2511,9159
2441,9160
2284,9161
2175,9162
2092,9163
1914,9164
1744,9165
1669,9166
1666,9167
1720,9168
1675,9169
1669,9170
1744,9171
1828,9172
1897,9173
1936,9174
1997,9175
2112,9176
2146,9177
2160,9178
2153,9179
2098,9180
2007,9181
1967,9182
1822,9183
1739,9184
1727,9185
1671,9186
1663,9187
1746,9188
1908,9189
1991,9190
2146,9191
2208,9192
2151,9193
2085,9194
2012,9195
1938,9196
1902,9197
1869,9198
1832,9199
1824,9200
1880,9201
1907,9202
1928,9203
1935,9204
1967,9205
1948,9206
1961,9207
1983,9208
1936,9209
1907,9210
1855,9211
1853,9212
1772,9213
1783,9214
1815,9215
1843,9216
1900,9217
1919,9218
1977,9219
2087,9220
2122,9221
2106,9222
2036,9223
1955,9224
1895,9225
1808,9226
1786,9227
1798,9228
1805,9229
1859,9230
1952,9231
2009,9232
2111,9233
2251,9234
2257,9235
2290,9236
2233,9237
2106,9238
2024,9239
2058,9240
2029,9241
2051,9242
2048,9243
2049,9244
2077,9245
1993,9246
1920,9247
1840,9248
1769,9249
1668,9250
1698,9251
1850,9252
1860,9253
1928,9254
1956,9255
1959,9256
1935,9257
1885,9258
1881,9259
1923,9260
1887,9261
1881,9262
1867,9263
1897,9264
1918,9265
1954,9266
1895,9267
1840,9268
1826,9269
1888,9270
2024,9271
2146,9272
2288,9273
2339,9274
2285,9275
2302,9276
2268,9277
2099,9278
1971,9279
1778,9280
1673,9281
1655,9282
1649,9283
1629,9284
1639,9285
1702,9286
1736,9287
1804,9288
1851,9289
1905,9290
1955,9291
1994,9292
2015,9293
2036,9294
2037,9295
2043,9296
2062,9297
1992,9298
1936,9299
1928,9300
1906,9301
1877,9302
1902,9303
2003,9304
2135,9305
2148,9306
2086,9307
2012,9308
1936,9309
1895,9310
1837,9311
1808,9312
1868,9313
1996,9314
2006,9315
1981,9316
2014,9317
1999,9318
1963,9319
1941,9320
1933,9321
1916,9322
1846,9323
1796,9324
1775,9325
1753,9326
1781,9327
1764,9328
1874,9329
1948,9330
1926,9331
1958,9332
1985,9333
1984,9334
1999,9335
2056,9336
2060,9337
2070,9338
1959,9339
1950,9340
1934,9341
1928,9342
1972,9343
2001,9344
1950,9345
1857,9346
1848,9347
1907,9348
1990,9349
1957,9350
1984,9351
1984,9352
1963,9353
1941,9354
1876,9355
1827,9356
1817,9357
1845,9358
1899,9359
1925,9360
1907,9361
1978,9362
1985,9363
2002,9364
1982,9365
1935,9366
1930,9367
1885,9368
1823,9369
1887,9370
1941,9371
1986,9372
1975,9373
1963,9374
1963,9375
1936,9376
1884,9377
1870,9378
1872,9379
1880,9380
1878,9381
1884,9382
1874,9383
1886,9384
1913,9385
1971,9386
1976,9387
1955,9388
2021,9389
1966,9390
1907,9391
1947,9392
1897,9393
1904,9394
1920,9395
1962,9396
1999,9397
2036,9398
2034,9399
2051,9400
2024,9401
1999,9402
2146,9403
2228,9404
2198,9405
2118,9406
2004,9407
1836,9408
1735,9409
1711,9410
1747,9411
1823,9412
1900,9413
1933,9414
1950,9415
1927,9416
1899,9417
1904,9418
1895,9419
1921,9420
1991,9421
2048,9422
2201,9423
2241,9424
2261,9425
2194,9426
2117,9427
1959,9428
1827,9429
1733,9430
1661,9431
1677,9432
1802,9433
1815,9434
1875,9435
1898,9436
1906,9437
1885,9438
1874,9439
1891,9440
1895,9441
1896,9442
1908,9443
1929,9444
1889,9445
1860,9446
1844,9447
1865,9448
1892,9449
1905,9450
1962,9451
2095,9452
2191,9453
2311,9454
2292,9455
2198,9456
2097,9457
1942,9458
1894,9459
1799,9460
1819,9461
1804,9462
1821,9463
1961,9464
1899,9465
1886,9466
1803,9467
1785,9468
1862,9469
1881,9470
1980,9471
2088,9472
2115,9473
2123,9474
2106,9475
2049,9476
2026,9477
1966,9478
1889,9479
1854,9480
1819,9481
1875,9482
1904,9483
1844,9484
1826,9485
1869,9486
1934,9487
1938,9488
1984,9489
2015,9490
2067,9491
2092,9492
2016,9493
1959,9494
1880,9495
1872,9496
1910,9497
1868,9498
1801,9499
1817,9500
1778,9501
1754,9502
1772,9503
1899,9504
1907,9505
2015,9506
2043,9507
2079,9508
2090,9509
2062,9510
1984,9511
1913,9512
1930,9513
1881,9514
1860,9515
1863,9516
1916,9517
1935,9518
1996,9519
1987,9520
1989,9521
1984,9522
1971,9523
1924,9524
1924,9525
1906,9526
1887,9527
1861,9528
1869,9529
1946,9530
1977,9531
2082,9532
2134,9533
2123,9534
2030,9535
1958,9536
1854,9537
1797,9538
1817,9539
1896,9540
1942,9541
1984,9542
1940,9543
1935,9544
1936,9545
1920,9546
1890,9547
1854,9548
1853,9549
1919,9550
1963,9551
2019,9552
2049,9553
2047,9554
2029,9555
1983,9556
2000,9557
2093,9558
2125,9559
2214,9560
2213,9561
2161,9562
2058,9563
1918,9564
1761,9565
1672,9566
1616,9567
1649,9568
1753,9569
1829,9570
1902,9571
1999,9572
2030,9573
1995,9574
1965,9575
1940,9576
1919,9577
2000,9578
2196,9579
2461,9580
2466,9581
2353,9582
2247,9583
2080,9584
1840,9585
1687,9586
1609,9587
1596,9588
1628,9589
1709,9590
1673,9591
1697,9592
1776,9593
1824,9594
1875,9595
1901,9596
1916,9597
1913,9598
1975,9599
2011,9600
2059,9601
2076,9602
2092,9603
2100,9604
2066,9605
2069,9606
1980,9607
1854,9608
1766,9609
1744,9610
1780,9611
1907,9612
2014,9613
2078,9614
2151,9615
2153,9616
2163,9617
2110,9618
2027,9619
1950,9620
1844,9621
1880,9622
1877,9623
1853,9624
1843,9625
1877,9626
1932,9627
1919,9628
1905,9629
1879,9630
1907,9631
1895,9632
1843,9633
1845,9634
1836,9635
1862,9636
1871,9637
1842,9638
1827,9639
1868,9640
1889,9641
1932,9642
1997,9643
2011,9644
2072,9645
2133,9646
2147,9647
2087,9648
2039,9649
1944,9650
1900,9651
1871,9652
1897,9653
1950,9654
1968,9655
2031,9656
2031,9657
1999,9658
1983,9659
1964,9660
1946,9661
1981,9662
1981,9663
1976,9664
2003,9665
1964,9666
1948,9667
1959,9668
1975,9669
1916,9670
1920,9671
1961,9672
2002,9673
2022,9674
1979,9675
1923,9676
1891,9677
1854,9678
1903,9679
1985,9680
2007,9681
2001,9682
1999,9683
1935,9684
1909,9685
1834,9686
1823,9687
1801,9688
1831,9689
1910,9690
2020,9691
2119,9692
2185,9693
2155,9694
2136,9695
2121,9696
2042,9697
1990,9698
2082,9699
2097,9700
2159,9701
2059,9702
1990,9703
1967,9704
1874,9705
1780,9706
1762,9707
1712,9708
1700,9709
1688,9710
1710,9711
1688,9712
1727,9713
1793,9714
1798,9715
1902,9716
1911,9717
1968,9718
1985,9719
1986,9720
1991,9721
1952,9722
1888,9723
1871,9724
1856,9725
1920,9726
1933,9727
1911,9728
1914,9729
1910,9730
1933,9731
2004,9732
2144,9733
2287,9734
2360,9735
2358,9736
2329,9737
2210,9738
2032,9739
1870,9740
1925,9741
2120,9742
2346,9743
2332,9744
2277,9745
2131,9746
1897,9747
1701,9748
1593,9749
1636,9750
1649,9751
1760,9752
1836,9753
1907,9754
1950,9755
2006,9756
2016,9757
2002,9758
1986,9759
1968,9760
1871,9761
1797,9762
1744,9763
1733,9764
1776,9765
1864,9766
1942,9767
1966,9768
1961,9769
2030,9770
2095,9771
2185,9772
2170,9773
2085,9774
2009,9775
1896,9776
1852,9777
1769,9778
1748,9779
1792,9780
1829,9781
1852,9782
1850,9783
1863,9784
1972,9785
2008,9786
2099,9787
2204,9788
2174,9789
2136,9790
2044,9791
1854,9792
1735,9793
1787,9794
1835,9795
1840,9796
1913,9797
1953,9798
2025,9799
1993,9800
1887,9801
1881,9802
1854,9803
1841,9804
1815,9805
1872,9806
1885,9807
1897,9808
1885,9809
1959,9810
2027,9811
2071,9812
2075,9813
2041,9814
2028,9815
2054,9816
2074,9817
2058,9818
2020,9819
1937,9820
1891,9821
1797,9822
1720,9823
1716,9824
1700,9825
1731,9826
1783,9827
1841,9828
1833,9829
1844,9830
1860,9831
1874,9832
1857,9833
1918,9834
1942,9835
1977,9836
2026,9837
2099,9838
2105,9839
2130,9840
2165,9841
2113,9842
2003,9843
2017,9844
1976,9845
1880,9846
1832,9847
1824,9848
1792,9849
1915,9850
2039,9851
2173,9852
2135,9853
2062,9854
1963,9855
1911,9856
1786,9857
1770,9858
1835,9859
1883,9860
1885,9861
1865,9862
1873,9863
1886,9864
1947,9865
1967,9866
2032,9867
2006,9868
1929,9869
1900,9870
1864,9871
1853,9872
1853,9873
1841,9874
1893,9875
1897,9876
1895,9877
1872,9878
1867,9879
1909,9880
1952,9881
1957,9882
1978,9883
1946,9884
1929,9885
1951,9886
1983,9887
2021,9888
2045,9889
2092,9890
2042,9891
2024,9892
1960,9893
1923,9894
1951,9895
1980,9896
2053,9897
2131,9898
2132,9899
2072,9900
1903,9901
1840,9902
1807,9903
1749,9904
1742,9905
1769,9906
1783,9907
1857,9908
1875,9909
1924,9910
2009,9911
2095,9912
2123,9913
2168,9914
2192,9915
2148,9916
2019,9917
1913,9918
1824,9919
1745,9920
1720,9921
1682,9922
1748,9923
1766,9924
1773,9925
1842,9926
1863,9927
1910,9928
1930,9929
1971,9930
1965,9931
1965,9932
2007,9933
2045,9934
2064,9935
2061,9936
2052,9937
2038,9938
2006,9939
1957,9940
1886,9941
1836,9942
1852,9943
1881,9944
1924,9945
1955,9946
1971,9947
1970,9948
1949,9949
1919,9950
1931,9951
1905,9952
1881,9953
1968,9954
2034,9955
2105,9956
2106,9957
2044,9958
1964,9959
1864,9960
1943,9961
1967,9962
2000,9963
1975,9964
1959,9965
1912,9966
1848,9967
1862,9968
1863,9969
1843,9970
1912,9971
2082,9972
2162,9973
2150,9974
2142,9975
2289,9976
2286,9977
2191,9978
2049,9979
1944,9980
1792,9981
1668,9982
1662,9983
1716,9984
1765,9985
1760,9986
1785,9987
1838,9988
1881,9989
1954,9990
2043,9991
2000,9992
2006,9993
1962,9994
1943,9995
1901,9996
1869,9997
1828,9998
1872,9999
1899,10000
1952,10001
1935,10002
1933,10003
1904,10004
1862,10005
1807,10006
1781,10007
1774,10008
1839,10009
1907,10010
1980,10011
2020,10012
2109,10013
2166,10014
2229,10015
2239,10016
2254,10017
2156,10018
2045,10019
1866,10020
1798,10021
1707,10022
1685,10023
1674,10024
1744,10025
1843,10026
1927,10027
2051,10028
2181,10029
2265,10030
2288,10031
2251,10032
2260,10033
2194,10034
2181,10035
2113,10036
2044,10037
1937,10038
1805,10039
1775,10040
1722,10041
1705,10042
1755,10043
1866,10044
1931,10045
1924,10046
1886,10047
1814,10048
1771,10049
1758,10050
1779,10051
1775,10052
1824,10053
1848,10054
1929,10055
1986,10056
2054,10057
2240,10058
2359,10059
2369,10060
2309,10061
2421,10062
2459,10063
2322,10064
2223,10065
2180,10066
2094,10067
1947,10068
1925,10069
1841,10070
1937,10071
1984,10072
2065,10073
2142,10074
2128,10075
2126,10076
2231,10077
2214,10078
2183,10079
2031,10080
1991,10081
1961,10082
1936,10083
1843,10084
1804,10085
1695,10086
1640,10087
1655,10088
1607,10089
1582,10090
1639,10091
1694,10092
1738,10093
1776,10094
1822,10095
1835,10096
1883,10097
1892,10098
1909,10099
1987,10100
2060,10101
2139,10102
2153,10103
2131,10104
2187,10105
2124,10106
2012,10107
1847,10108
1746,10109
1733,10110
1728,10111
1738,10112
1753,10113
1783,10114
1799,10115
1804,10116
1838,10117
1865,10118
1856,10119
1808,10120
1772,10121
1843,10122
1898,10123
2002,10124
2072,10125
2153,10126
2218,10127
2240,10128
2190,10129
2076,10130
1955,10131
1970,10132
2097,10133
2095,10134
2107,10135
2075,10136
2093,10137
2160,10138
2119,10139
2083,10140
2132,10141
2082,10142
2012,10143
1915,10144
1916,10145
1833,10146
1707,10147
1638,10148
1588,10149
1583,10150
1628,10151
1711,10152
1780,10153
1775,10154
1837,10155
1950,10156
1971,10157
1972,10158
2009,10159
2055,10160
1993,10161
1962,10162
1930,10163
1952,10164
1925,10165
1999,10166
2055,10167
2152,10168
2149,10169
2083,10170
1974,10171
1904,10172
1803,10173
1637,10174
1495,10175
1637,10176
1726,10177
1857,10178
2013,10179
2064,10180
2135,10181
2084,10182
1986,10183
1947,10184
1912,10185
1917,10186
1940,10187
1925,10188
1978,10189
1926,10190
1924,10191
1867,10192
1840,10193
1865,10194
1957,10195
1985,10196
1971,10197
1939,10198
1906,10199
1956,10200
2001,10201
2101,10202
2101,10203
2020,10204
1990,10205
1967,10206
1985,10207
1912,10208
1894,10209
1864,10210
1916,10211
1939,10212
1960,10213
1988,10214
2013,10215
1951,10216
1903,10217
1836,10218
1810,10219
1770,10220
1782,10221
1992,10222
2069,10223
2142,10224
2145,10225
2102,10226
1991,10227
1795,10228
1729,10229
1717,10230
1707,10231
1792,10232
1867,10233
1847,10234
1882,10235
1864,10236
1891,10237
1872,10238
1860,10239
1863,10240
1925,10241
1917,10242
1909,10243
1847,10244
1922,10245
2005,10246
2058,10247
2035,10248
2007,10249
1977,10250
1953,10251
1917,10252
1966,10253
2021,10254
2080,10255
2151,10256
2189,10257
2107,10258
2070,10259
1951,10260
1885,10261
1784,10262
1795,10263
1840,10264
1804,10265
1832,10266
1979,10267
2136,10268
2205,10269
2239,10270
2168,10271
2013,10272
1779,10273
1679,10274
1851,10275
1980,10276
2148,10277
2191,10278
2038,10279
1931,10280
1809,10281
1662,10282
1542,10283
1590,10284
1703,10285
1844,10286
1973,10287
2033,10288
2081,10289
2060,10290
1976,10291
1878,10292
1788,10293
1745,10294
1765,10295
1838,10296
1938,10297
1952,10298
1984,10299
1988,10300
2044,10301
2044,10302
2060,10303
2007,10304
1873,10305
1860,10306
1897,10307
2084,10308
2147,10309
2110,10310
2051,10311
2010,10312
1888,10313
1775,10314
1655,10315
1732,10316
1917,10317
1968,10318
1942,10319
1913,10320
1857,10321
1895,10322
1898,10323
1874,10324
1913,10325
1895,10326
1888,10327
1933,10328
1940,10329
1945,10330
1919,10331
1909,10332
1950,10333
1927,10334
1934,10335
1969,10336
1905,10337
1907,10338
1827,10339
1902,10340
1888,10341
1989,10342
2005,10343
2026,10344
2035,10345
1988,10346
1978,10347
1893,10348
1850,10349
1841,10350
1834,10351
1869,10352
1875,10353
1859,10354
1911,10355
1987,10356
2127,10357
2207,10358
2234,10359
2330,10360
2257,10361
2218,10362
2130,10363
1957,10364
1882,10365
1752,10366
1740,10367
1692,10368
1568,10369
1537,10370
1637,10371
1752,10372
1885,10373
1960,10374
2072,10375
2090,10376
2094,10377
2145,10378
2199,10379
2103,10380
2019,10381
2017,10382
1997,10383
1951,10384
1880,10385
1771,10386
1723,10387
1660,10388
1708,10389
1691,10390
1738,10391
1819,10392
1854,10393
1892,10394
1970,10395
1995,10396
2040,10397
1980,10398
2040,10399
1963,10400
1879,10401
1874,10402
1902,10403
1955,10404
2048,10405
2145,10406
2128,10407
2112,10408
2099,10409
2044,10410
1935,10411
1884,10412
1854,10413
1867,10414
1908,10415
1943,10416
1958,10417
2009,10418
2013,10419
2021,10420
1931,10421
1856,10422
1705,10423
1691,10424
1840,10425
1954,10426
1926,10427
1879,10428
1888,10429
1827,10430
1948,10431
1973,10432
1989,10433
2039,10434
2053,10435
2056,10436
1977,10437
1983,10438
1904,10439
1868,10440
1778,10441
1772,10442
1790,10443
1810,10444
1815,10445
1855,10446
1888,10447
1957,10448
1987,10449
2051,10450
2050,10451
2076,10452
2006,10453
1941,10454
1903,10455
1871,10456
1834,10457
1819,10458
1806,10459
1811,10460
1852,10461
1850,10462
1826,10463
1855,10464
1876,10465
1865,10466
1943,10467
2059,10468
2132,10469
2126,10470
2110,10471
2052,10472
2032,10473
1959,10474
1891,10475
1804,10476
1799,10477
1852,10478
1884,10479
1932,10480
1972,10481
1969,10482
1921,10483
1889,10484
1881,10485
1823,10486
1802,10487
1823,10488
1917,10489
1985,10490
2023,10491
2101,10492
2063,10493
2037,10494
1973,10495
1945,10496
1916,10497
1876,10498
1861,10499
1888,10500
1947,10501
1912,10502
1918,10503
1970,10504
1993,10505
1939,10506
1890,10507
1831,10508
1860,10509
2109,10510
2211,10511
2247,10512
2233,10513
2180,10514
2151,10515
2081,10516
2104,10517
2085,10518
2006,10519
1816,10520
1737,10521
1651,10522
1600,10523
1652,10524
1689,10525
1838,10526
1916,10527
1953,10528
1933,10529
1859,10530
1899,10531
1812,10532
1735,10533
1809,10534
1828,10535
1979,10536
2161,10537
2278,10538
2273,10539
2185,10540
2031,10541
1894,10542
1736,10543
1595,10544
1631,10545
1706,10546
1732,10547
1798,10548
1874,10549
1903,10550
1907,10551
1899,10552
1943,10553
1960,10554
1978,10555
2073,10556
2073,10557
2096,10558
2033,10559
2034,10560
2175,10561
2184,10562
2161,10563
2113,10564
2055,10565
2021,10566
1940,10567
1841,10568
1855,10569
1886,10570
1887,10571
1826,10572
1760,10573
1768,10574
1745,10575
1786,10576
1810,10577
1824,10578
1872,10579
1908,10580
1952,10581
2004,10582
2092,10583
2106,10584
2081,10585
2013,10586
1941,10587
1830,10588
1783,10589
1773,10590
1749,10591
1802,10592
1884,10593
1922,10594
1963,10595
2022,10596
2039,10597
2078,10598
2098,10599
2133,10600
2125,10601
1984,10602
1883,10603
1747,10604
1695,10605
1732,10606
1765,10607
1867,10608
1911,10609
1958,10610
1976,10611
1992,10612
1976,10613
1969,10614
1960,10615
1946,10616
1902,10617
1873,10618
1833,10619
1856,10620
1853,10621
1895,10622
1904,10623
1948,10624
2008,10625
1969,10626
2003,10627
2011,10628
2012,10629
1980,10630
1955,10631
2008,10632
2126,10633
2220,10634
2218,10635
2146,10636
2170,10637
2106,10638
2011,10639
2031,10640
1955,10641
1886,10642
1783,10643
1723,10644
1701,10645
1696,10646
1649,10647
1669,10648
1707,10649
1778,10650
1849,10651
2003,10652
2111,10653
2162,10654
2144,10655
2080,10656
1948,10657
1844,10658
1877,10659
1876,10660
1915,10661
1969,10662
1950,10663
1861,10664
1739,10665
1766,10666
1774,10667
1843,10668
1900,10669
1961,10670
1970,10671
1968,10672
1970,10673
1994,10674
1995,10675
1964,10676
1952,10677
1927,10678
1986,10679
2048,10680
2139,10681
2160,10682
2063,10683
1984,10684
1879,10685
1790,10686
1767,10687
1722,10688
1757,10689
1780,10690
1842,10691
1871,10692
1934,10693
1988,10694
2017,10695
2019,10696
1994,10697
2017,10698
2082,10699
2038,10700
1987,10701
1937,10702
1897,10703
1815,10704
1857,10705
1901,10706
1958,10707
1993,10708
2000,10709
2101,10710
2184,10711
2129,10712
2052,10713
1992,10714
1933,10715
1895,10716
1802,10717
1872,10718
1931,10719
1910,10720
1863,10721
1826,10722
1754,10723
1753,10724
1725,10725
1758,10726
1743,10727
1776,10728
1828,10729
1833,10730
1902,10731
1967,10732
2053,10733
2068,10734
2159,10735
2240,10736
2214,10737
2136,10738
2050,10739
1930,10740
1864,10741
1867,10742
1855,10743
1821,10744
1879,10745
1869,10746
1861,10747
1857,10748
1794,10749
1793,10750
1797,10751
1766,10752
1844,10753
1959,10754
2041,10755
2060,10756
2072,10757
2017,10758
1995,10759
1984,10760
1933,10761
1972,10762
1975,10763
1951,10764
1909,10765
1895,10766
1876,10767
1833,10768
1837,10769
1832,10770
1912,10771
1919,10772
1929,10773
1951,10774
2019,10775
2040,10776
2066,10777
2030,10778
2047,10779
2102,10780
2127,10781
2164,10782
2160,10783
2130,10784
2028,10785
1988,10786
1935,10787
1880,10788
1816,10789
1781,10790
1811,10791
1925,10792
2082,10793
2165,10794
2112,10795
2074,10796
2062,10797
1955,10798
1784,10799
1711,10800
1680,10801
1707,10802
1711,10803
1781,10804
1797,10805
1796,10806
1800,10807
1864,10808
1909,10809
1888,10810
1920,10811
1896,10812
1914,10813
1887,10814
1870,10815
1905,10816
1887,10817
1928,10818
2017,10819
2127,10820
2108,10821
2136,10822
2092,10823
2001,10824
1920,10825
1852,10826
1844,10827
1940,10828
2089,10829
2246,10830
2216,10831
2166,10832
2005,10833
1898,10834
1805,10835
1761,10836
1735,10837
1780,10838
1890,10839
1897,10840
1924,10841
1939,10842
1901,10843
1916,10844
1903,10845
1825,10846
1837,10847
1898,10848
1944,10849
1964,10850
1969,10851
2032,10852
2157,10853
2274,10854
2328,10855
2252,10856
2204,10857
2116,10858
1961,10859
1827,10860
1720,10861
1690,10862
1723,10863
1748,10864
1704,10865
1729,10866
1745,10867
1824,10868
1834,10869
1863,10870
1797,10871
1855,10872
1881,10873
2021,10874
2186,10875
2400,10876
2451,10877
2409,10878
2256,10879
2047,10880
1827,10881
1691,10882
1689,10883
1782,10884
1799,10885
1742,10886
1752,10887
1736,10888
1736,10889
1732,10890
1781,10891
1847,10892
1827,10893
1869,10894
1927,10895
1896,10896
1895,10897
1925,10898
1907,10899
1927,10900
1956,10901
2032,10902
2086,10903
2073,10904
2039,10905
1985,10906
1922,10907
1904,10908
1928,10909
1932,10910
1904,10911
1899,10912
1927,10913
1921,10914
2000,10915
2074,10916
2124,10917
2113,10918
2055,10919
2006,10920
1959,10921
2032,10922
2121,10923
2145,10924
2102,10925
2045,10926
1981,10927
1877,10928
1799,10929
1786,10930
1799,10931
1779,10932
1785,10933
1816,10934
2003,10935
2169,10936
2267,10937
2336,10938
2282,10939
2149,10940
1926,10941
1739,10942
1698,10943
1707,10944
1758,10945
1694,10946
1677,10947
1699,10948
1752,10949
1766,10950
1779,10951
1807,10952
1864,10953
1929,10954
1912,10955
1964,10956
2017,10957
2062,10958
2084,10959
2036,10960
1998,10961
1941,10962
1906,10963
1915,10964
1983,10965
2001,10966
2011,10967
1994,10968
1944,10969
1881,10970
1852,10971
1822,10972
1808,10973
1804,10974
1836,10975
1958,10976
1971,10977
2048,10978
2131,10979
2124,10980
2152,10981
2134,10982
2032,10983
1921,10984
1866,10985
1799,10986
1800,10987
1978,10988
2087,10989
2110,10990
2051,10991
1991,10992
1884,10993
1877,10994
1851,10995
1862,10996
1855,10997
1938,10998
1960,10999
1935,11000
1943,11001
1879,11002
1880,11003
1858,11004
1957,11005
2085,11006
2070,11007
2066,11008
1980,11009
1884,11010
1780,11011
1735,11012
1744,11013
1811,11014
1960,11015
2084,11016
2143,11017
2128,11018
2115,11019
2095,11020
2008,11021
1861,11022
1827,11023
1798,11024
1809,11025
1895,11026
2010,11027
2048,11028
2032,11029
1963,11030
1809,11031
1815,11032
1758,11033
1854,11034
1916,11035
1965,11036
1984,11037
1942,11038
1991,11039
2195,11040
2300,11041
2302,11042
2236,11043
2160,11044
2006,11045
1875,11046
1703,11047
1642,11048
1668,11049
1683,11050
1678,11051
1758,11052
1801,11053
1832,11054
1925,11055
1992,11056
2034,11057
2033,11058
2015,11059
2059,11060
1996,11061
1974,11062
1934,11063
1876,11064
1839,11065
1750,11066
1773,11067
1779,11068
1802,11069
1866,11070
1886,11071
1897,11072
1914,11073
1973,11074
1980,11075
2033,11076
2008,11077
2064,11078
2080,11079
2199,11080
2206,11081
2177,11082
2170,11083
2168,11084
2151,11085
2120,11086
2013,11087
1799,11088
1726,11089
1738,11090
1735,11091
1794,11092
1779,11093
1763,11094
1767,11095
1832,11096
1853,11097
1913,11098
1961,11099
2007,11100
2130,11101
2177,11102
2197,11103
2178,11104
2136,11105
2009,11106
1944,11107
1864,11108
1766,11109
1688,11110
1671,11111
1705,11112
1761,11113
1889,11114
2020,11115
2045,11116
2034,11117
2016,11118
1996,11119
1949,11120
2006,11121
2021,11122
2029,11123
1991,11124
1931,11125
1838,11126
1746,11127
1771,11128
1815,11129
1886,11130
2010,11131
2048,11132
2039,11133
1989,11134
1971,11135
1919,11136
1836,11137
1809,11138
1847,11139
1868,11140
1906,11141
1919,11142
1910,11143
1905,11144
1863,11145
1817,11146
1811,11147
1915,11148
2135,11149
2256,11150
2293,11151
2241,11152
2192,11153
2111,11154
1938,11155
1857,11156
1717,11157
1662,11158
1708,11159
1727,11160
1772,11161
1808,11162
1803,11163
1843,11164
1927,11165
1968,11166
1984,11167
2011,11168
2039,11169
2040,11170
2049,11171
2042,11172
1985,11173
2027,11174
2021,11175
2023,11176
1996,11177
2000,11178
2013,11179
1979,11180
1960,11181
1927,11182
1891,11183
1840,11184
1920,11185
1899,11186
1854,11187
1847,11188
1859,11189
1851,11190
1827,11191
1846,11192
1870,11193
1905,11194
1984,11195
2037,11196
2038,11197
2031,11198
2016,11199
2049,11200
2096,11201
2078,11202
2034,11203
2005,11204
1926,11205
1824,11206
1844,11207
1866,11208
1864,11209
1902,11210
1976,11211
1950,11212
1881,11213
1795,11214
1782,11215
1810,11216
1902,11217
1876,11218
1940,11219
1961,11220
1977,11221
2026,11222
1979,11223
1960,11224
1894,11225
1907,11226
2024,11227
2001,11228
1973,11229
1959,11230
1944,11231
1922,11232
1915,11233
1827,11234
1849,11235
1839,11236
1879,11237
1888,11238
1904,11239
1967,11240
1977,11241
1980,11242
1971,11243
1941,11244
1953,11245
1910,11246
1947,11247
1929,11248
1886,11249
1825,11250
1825,11251
1875,11252
1895,11253
1924,11254
2017,11255
2084,11256
2127,11257
2055,11258
1978,11259
1946,11260
2002,11261
2027,11262
2124,11263
2171,11264
2221,11265
2263,11266
2192,11267
2041,11268
1935,11269
1842,11270
1709,11271
1730,11272
1690,11273
1736,11274
1740,11275
1768,11276
1799,11277
1865,11278
1921,11279
2042,11280
2065,11281
2092,11282
2103,11283
2069,11284
1992,11285
1910,11286
1808,11287
1735,11288
1760,11289
1778,11290
1774,11291
1874,11292
1966,11293
1963,11294
2015,11295
2026,11296
1998,11297
1957,11298
1892,11299
1866,11300
1867,11301
1816,11302
1868,11303
1847,11304
1874,11305
1859,11306
1891,11307
1921,11308
1916,11309
1879,11310
1906,11311
1946,11312
1966,11313
2023,11314
2048,11315
2057,11316
2050,11317
2004,11318
1991,11319
1939,11320
1913,11321
1887,11322
1877,11323
1920,11324
1965,11325
2096,11326
2268,11327
2333,11328
2272,11329
2143,11330
2017,11331
1859,11332
1752,11333
1574,11334
1683,11335
2011,11336
2168,11337
2256,11338
2232,11339
2150,11340
1981,11341
1842,11342
1800,11343
1732,11344
1591,11345
1567,11346
1614,11347
1721,11348
1756,11349
1832,11350
1883,11351
1900,11352
1950,11353
1958,11354
1990,11355
2030,11356
2008,11357
2026,11358
2004,11359
1988,11360
1960,11361
1957,11362
1959,11363
1938,11364
1843,11365
1856,11366
1854,11367
1881,11368
1839,11369
1862,11370
1831,11371
1872,11372
1895,11373
1851,11374
1907,11375
1962,11376
1992,11377
2024,11378
2036,11379
1967,11380
1942,11381
1877,11382
1869,11383
1833,11384
1844,11385
1791,11386
1823,11387
1862,11388
1909,11389
1913,11390
1937,11391
1933,11392
1950,11393
1970,11394
2056,11395
2134,11396
2140,11397
2141,11398
2141,11399
2068,11400
1989,11401
1935,11402
1887,11403
1833,11404
1836,11405
1884,11406
1916,11407
1979,11408
2029,11409
1993,11410
1960,11411
1871,11412
1831,11413
1778,11414
1877,11415
1965,11416
2056,11417
2150,11418
2114,11419
2212,11420
2227,11421
2166,11422
2143,11423
2143,11424
2086,11425
2088,11426
1958,11427
1862,11428
1699,11429
1664,11430
1686,11431
1663,11432
1761,11433
1825,11434
1929,11435
1936,11436
1957,11437
1935,11438
1967,11439
1985,11440
1974,11441
1938,11442
1936,11443
1930,11444
1897,11445
1869,11446
1822,11447
1824,11448
1852,11449
1882,11450
1904,11451
1879,11452
1888,11453
1924,11454
2060,11455
2109,11456
2056,11457
2076,11458
1994,11459
1939,11460
1934,11461
1954,11462
2012,11463
2017,11464
1926,11465
1875,11466
1891,11467
1878,11468
1861,11469
1908,11470
1959,11471
1959,11472
1953,11473
1912,11474
1881,11475
1851,11476
1939,11477
2028,11478
2062,11479
2036,11480
2022,11481
2024,11482
1921,11483
1896,11484
1874,11485
1906,11486
1962,11487
2064,11488
2213,11489
2274,11490
2227,11491
2110,11492
2023,11493
1865,11494
1673,11495
1728,11496
1823,11497
1962,11498
1976,11499
1985,11500
1954,11501
1922,11502
1886,11503
1918,11504
1901,11505
1897,11506
1930,11507
1909,11508
1910,11509
1949,11510
1960,11511
1959,11512
1965,11513
1940,11514
1982,11515
2067,11516
2224,11517
2207,11518
2172,11519
2115,11520
2057,11521
1978,11522
1878,11523
1807,11524
1799,11525
1817,11526
1863,11527
1886,11528
1889,11529
1948,11530
1911,11531
1938,11532
1843,11533
1811,11534
1815,11535
1880,11536
1890,11537
1900,11538
1871,11539
1960,11540
2100,11541
2183,11542
2179,11543
2136,11544
2030,11545
1926,11546
1840,11547
1797,11548
1796,11549
1784,11550
1777,11551
1803,11552
1890,11553
1960,11554
1989,11555
2023,11556
2095,11557
2109,11558
2009,11559
2014,11560
2052,11561
2038,11562
2033,11563
2001,11564
1963,11565
1968,11566
1906,11567
1856,11568
1807,11569
1827,11570
1863,11571
1875,11572
1918,11573
1951,11574
1999,11575
2021,11576
2157,11577
2319,11578
2348,11579
2289,11580
2191,11581
2120,11582
1975,11583
1878,11584
1789,11585
1840,11586
1851,11587
1817,11588
1742,11589
1747,11590
1787,11591
1824,11592
1845,11593
1870,11594
1930,11595
1936,11596
2034,11597
2081,11598
2120,11599
2072,11600
2025,11601
1974,11602
1901,11603
1876,11604
1949,11605
1990,11606
2023,11607
2132,11608
2152,11609
2140,11610
2013,11611
1876,11612
1773,11613
1708,11614
1715,11615
1840,11616
1889,11617
1937,11618
1979,11619
1997,11620
1988,11621
1930,11622
1913,11623
1944,11624
1922,11625
1849,11626
1906,11627
1962,11628
2028,11629
2049,11630
2084,11631
2040,11632
1993,11633
2020,11634
2047,11635
2054,11636
2087,11637
2078,11638
2098,11639
2011,11640
1948,11641
1899,11642
1809,11643
1758,11644
1721,11645
1775,11646
1799,11647
1833,11648
1773,11649
1815,11650
1905,11651
2008,11652
2105,11653
2171,11654
2166,11655
2090,11656
2052,11657
2053,11658
2051,11659
2063,11660
2012,11661
2048,11662
1977,11663
2018,11664
2252,11665
2275,11666
2200,11667
2090,11668
1999,11669
1853,11670
1728,11671
1648,11672
1580,11673
1634,11674
1733,11675
1922,11676
1967,11677
1964,11678
1994,11679
1992,11680
1969,11681
1895,11682
1939,11683
1970,11684
1969,11685
1992,11686
1992,11687
1973,11688
1875,11689
1861,11690
1812,11691
1857,11692
1895,11693
1905,11694
1893,11695
1895,11696
1896,11697
1880,11698
1897,11699
1920,11700
1958,11701
1972,11702
2008,11703
1985,11704
1986,11705
1938,11706
1985,11707
2103,11708
2060,11709
2060,11710
2008,11711
2024,11712
2008,11713
1975,11714
2048,11715
2117,11716
2088,11717
2071,11718
2113,11719
2056,11720
1935,11721
1854,11722
1778,11723
1664,11724
1705,11725
1768,11726
1775,11727
1725,11728
1761,11729
1811,11730
1853,11731
1905,11732
1992,11733
2079,11734
2127,11735
2151,11736
2134,11737
2172,11738
2222,11739
2193,11740
2145,11741
2034,11742
1871,11743
1767,11744
1684,11745
1670,11746
1685,11747
1786,11748
1858,11749
1941,11750
1976,11751
2003,11752
2028,11753
2076,11754
2136,11755
2146,11756
2116,11757
2040,11758
1920,11759
1827,11760
1765,11761
1722,11762
1718,11763
1792,11764
1865,11765
1904,11766
1908,11767
1984,11768
1993,11769
2006,11770
2113,11771
2168,11772
2181,11773
2155,11774
2162,11775
2168,11776
2208,11777
2098,11778
2049,11779
2047,11780
1930,11781
1799,11782
1722,11783
1699,11784
1682,11785
1679,11786
1730,11787
1813,11788
1855,11789
1922,11790
1919,11791
1916,11792
1883,11793
1908,11794
1901,11795
2033,11796
2063,11797
2092,11798
2060,11799
2000,11800
1999,11801
1988,11802
1979,11803
1987,11804
1988,11805
1963,11806
1945,11807
1939,11808
1979,11809
1979,11810
1880,11811
1881,11812
1878,11813
1923,11814
1916,11815
1895,11816
1928,11817
1938,11818
2037,11819
2080,11820
2033,11821
2022,11822
1999,11823
1966,11824
1952,11825
1952,11826
1972,11827
1967,11828
1952,11829
2041,11830
2044,11831
1971,11832
2008,11833
2095,11834
2100,11835
2004,11836
1972,11837
1960,11838
1874,11839
1821,11840
1823,11841
1814,11842
1819,11843
1800,11844
1837,11845
1853,11846
1812,11847
1754,11848
1768,11849
1831,11850
1880,11851
1897,11852
1907,11853
1968,11854
2018,11855
2152,11856
2212,11857
2165,11858
2050,11859
1944,11860
1838,11861
1787,11862
1804,11863
1828,11864
1869,11865
1931,11866
1943,11867
1972,11868
2060,11869
2160,11870
2283,11871
2355,11872
2314,11873
2207,11874
2051,11875
1864,11876
1723,11877
1688,11878
1803,11879
1823,11880
1815,11881
1865,11882
1828,11883
1824,11884
1862,11885
1899,11886
2040,11887
2138,11888
2185,11889
2205,11890
2127,11891
2013,11892
1923,11893
1883,11894
1913,11895
1918,11896
1852,11897
1869,11898
1843,11899
1900,11900
1943,11901
1912,11902
1926,11903
1904,11904
1866,11905
1798,11906
1763,11907
1801,11908
1916,11909
2032,11910
2050,11911
2064,11912
2047,11913
2008,11914
1941,11915
1855,11916
1862,11917
1841,11918
1888,11919
1953,11920
1973,11921
1949,11922
1896,11923
1883,11924
1836,11925
1823,11926
1841,11927
1975,11928
2154,11929
2298,11930
2293,11931
2269,11932
2167,11933
2035,11934
1913,11935
1753,11936
1656,11937
1693,11938
1749,11939
1850,11940
1952,11941
1969,11942
1941,11943
1950,11944
1915,11945
1960,11946
1958,11947
1956,11948
1955,11949
1991,11950
2007,11951
1981,11952
1994,11953
2075,11954
2045,11955
1973,11956
1930,11957
1910,11958
1907,11959
1899,11960
1926,11961
1926,11962
1952,11963
1978,11964
2032,11965
2002,11966
1982,11967
1951,11968
1925,11969
1938,11970
1939,11971
1873,11972
1888,11973
1933,11974
1879,11975
1864,11976
1848,11977
1816,11978
1836,11979
1932,11980
1908,11981
1908,11982
1925,11983
1954,11984
1990,11985
2040,11986
2084,11987
2091,11988
2077,11989
1993,11990
2011,11991
2012,11992
2024,11993
2005,11994
1943,11995
1932,11996
1866,11997
1921,11998
1949,11999
1951,12000
1979,12001
2044,12002
2039,12003
2040,12004
1926,12005
1854,12006
1808,12007
1810,12008
1834,12009
1910,12010
1977,12011
2037,12012
2069,12013
2091,12014
2095,12015
2064,12016
2015,12017
2021,12018
1964,12019
1911,12020
1799,12021
1726,12022
1781,12023
1825,12024
1830,12025
1874,12026
1889,12027
2031,12028
2025,12029
1974,12030
1927,12031
1889,12032
1827,12033
1854,12034
1879,12035
1917,12036
1978,12037
1980,12038
2077,12039
2141,12040
2101,12041
2020,12042
1976,12043
1955,12044
1911,12045
1939,12046
1939,12047
1856,12048
1835,12049
1825,12050
1919,12051
1991,12052
2029,12053
2048,12054
2056,12055
2028,12056
1982,12057
1978,12058
1996,12059
1981,12060
1946,12061
1949,12062
1968,12063
1967,12064
2016,12065
2038,12066
2016,12067
1993,12068
1957,12069
1882,12070
1855,12071
1815,12072
1800,12073
1828,12074
1848,12075
1867,12076
1936,12077
1952,12078
1989,12079
2087,12080
