1972,1516
1960,1517
1941,1518
1940,1519
1920,1520
1940,1521
1913,1522
1893,1523
1907,1524
1919,1525
1898,1526
1908,1527
1913,1528
1895,1529
1891,1530
1934,1531
1951,1532
1922,1533
1960,1534
1937,1535
1923,1536
1887,1537
1915,1538
1915,1539
1929,1540
1926,1541
1913,1542
1906,1543
1904,1544
1915,1545
1928,1546
1943,1547
1927,1548
1935,1549
1935,1550
1951,1551
1937,1552
1959,1553
1955,1554
1956,1555
1931,1556
1938,1557
1915,1558
1910,1559
1920,1560
1905,1561
1896,1562
1918,1563
1869,1564
1873,1565
1887,1566
1933,1567
1932,1568
1956,1569
1923,1570
1952,1571
1960,1572
1946,1573
1966,1574
1959,1575
1935,1576
1932,1577
1936,1578
1931,1579
1889,1580
1901,1581
1896,1582
1890,1583
1885,1584
1884,1585
1920,1586
1886,1587
1905,1588
1907,1589
1946,1590
1911,1591
1990,1592
1951,1593
1996,1594
1948,1595
1951,1596
1923,1597
1918,1598
1889,1599
1870,1600
1921,1601
1903,1602
1909,1603
1904,1604
1873,1605
1929,1606
1939,1607
1922,1608
1929,1609
1935,1610
1940,1611
1951,1612
1983,1613
1964,1614
1970,1615
1946,1616
1973,1617
1935,1618
1936,1619
1904,1620
1912,1621
1881,1622
1918,1623
1892,1624
1913,1625
1887,1626
1913,1627
1903,1628
1958,1629
1956,1630
1988,1631
1970,1632
1966,1633
1956,1634
1984,1635
1920,1636
1931,1637
1909,1638
1919,1639
1872,1640
1907,1641
1917,1642
1909,1643
1891,1644
1934,1645
1909,1646
1940,1647
1887,1648
1954,1649
1920,1650
1956,1651
1942,1652
1978,1653
1984,1654
1955,1655
1919,1656
1928,1657
1924,1658
1863,1659
1918,1660
1906,1661
1882,1662
1904,1663
1876,1664
1897,1665
1946,1666
1932,1667
1950,1668
1950,1669
1955,1670
1947,1671
1957,1672
1954,1673
1990,1674
1947,1675
1963,1676
1935,1677
1927,1678
1913,1679
1931,1680
1905,1681
1912,1682
1891,1683
1906,1684
1917,1685
1919,1686
1931,1687
1940,1688
1941,1689
1955,1690
1951,1691
1938,1692
1951,1693
1974,1694
1907,1695
1955,1696
1937,1697
1913,1698
1904,1699
1922,1700
1891,1701
1922,1702
1885,1703
1867,1704
1905,1705
1925,1706
1935,1707
1958,1708
1953,1709
1965,1710
1979,1711
1981,1712
1965,1713
1965,1714
1935,1715
1955,1716
1933,1717
1925,1718
1911,1719
1922,1720
1916,1721
1908,1722
1897,1723
1918,1724
1893,1725
1928,1726
1891,1727
1934,1728
1924,1729
1950,1730
1944,1731
1935,1732
1936,1733
1964,1734
1962,1735
1961,1736
1951,1737
1955,1738
1909,1739
1894,1740
1922,1741
1924,1742
1900,1743
1908,1744
1912,1745
1945,1746
1900,1747
1936,1748
1914,1749
1926,1750
1968,1751
1974,1752
1971,1753
1989,1754
1958,1755
1960,1756
1984,1757
1932,1758
1952,1759
1926,1760
1948,1761
1950,1762
1920,1763
1902,1764
1926,1765
1920,1766
1911,1767
1951,1768
1937,1769
1971,1770
1980,1771
1979,1772
1957,1773
1960,1774
1975,1775
1951,1776
1954,1777
1937,1778
1934,1779
1894,1780
1895,1781
1886,1782
1898,1783
1904,1784
1916,1785
1929,1786
1940,1787
1925,1788
1908,1789
1953,1790
1977,1791
1922,1792
1971,1793
1956,1794
1932,1795
1948,1796
1933,1797
1925,1798
1892,1799
1907,1800
1892,1801
1893,1802
1913,1803
1892,1804
1909,1805
1928,1806
1940,1807
1929,1808
1959,1809
1968,1810
1947,1811
1964,1812
1949,1813
1986,1814
1967,1815
1938,1816
1932,1817
1928,1818
1895,1819
1892,1820
1908,1821
1912,1822
1879,1823
1900,1824
1901,1825
1908,1826
1931,1827
1947,1828
1952,1829
1949,1830
1963,1831
1997,1832
1952,1833
1946,1834
1948,1835
1927,1836
1941,1837
1915,1838
1921,1839
1904,1840
1914,1841
1908,1842
1911,1843
1917,1844
1900,1845
1930,1846
1896,1847
1920,1848
1941,1849
1932,1850
1942,1851
1924,1852
1945,1853
1986,1854
1945,1855
1972,1856
1948,1857
1950,1858
1913,1859
1894,1860
1903,1861
1907,1862
1919,1863
1886,1864
1885,1865
1926,1866
1940,1867
1923,1868
1939,1869
1946,1870
1952,1871
1964,1872
1938,1873
2010,1874
1973,1875
1943,1876
1950,1877
1920,1878
1905,1879
1900,1880
1860,1881
1883,1882
1908,1883
1902,1884
1896,1885
1911,1886
1932,1887
1927,1888
1948,1889
1928,1890
1996,1891
2003,1892
2004,1893
2011,1894
2000,1895
1989,1896
1931,1897
1946,1898
1916,1899
1910,1900
1871,1901
1918,1902
1917,1903
1911,1904
1878,1905
1896,1906
1925,1907
1915,1908
1950,1909
1966,1910
1946,1911
1956,1912
1965,1913
1951,1914
1954,1915
1927,1916
1896,1917
1910,1918
1904,1919
1927,1920
1882,1921
1904,1922
1915,1923
1935,1924
1916,1925
1922,1926
1925,1927
1953,1928
1947,1929
1991,1930
1947,1931
1928,1932
1949,1933
1966,1934
1965,1935
1981,1936
1940,1937
1901,1938
1911,1939
1945,1940
1886,1941
1871,1942
1918,1943
1913,1944
1933,1945
1939,1946
1896,1947
1925,1948
1938,1949
1938,1950
1929,1951
1969,1952
1980,1953
1981,1954
1976,1955
1959,1956
1953,1957
1963,1958
1902,1959
1884,1960
1896,1961
1908,1962
1889,1963
1896,1964
1895,1965
1895,1966
1938,1967
1963,1968
1943,1969
1915,1970
1969,1971
1960,1972
1975,1973
1966,1974
1991,1975
1936,1976
1931,1977
1917,1978
1911,1979
1892,1980
1899,1981
1905,1982
1925,1983
1896,1984
1908,1985
1955,1986
1923,1987
1948,1988
1988,1989
1947,1990
1921,1991
1966,1992
1964,1993
1958,1994
1927,1995
1947,1996
1952,1997
1956,1998
1953,1999
1914,2000
1917,2001
1935,2002
1938,2003
1887,2004
1910,2005
1928,2006
1949,2007
1928,2008
1963,2009
1955,2010
1951,2011
1939,2012
1950,2013
1964,2014
1963,2015
1949,2016
1953,2017
1901,2018
1937,2019
1915,2020
1886,2021
1907,2022
1931,2023
1902,2024
1886,2025
1911,2026
1960,2027
1929,2028
1968,2029
1949,2030
1986,2031
1977,2032
1978,2033
1955,2034
1955,2035
1936,2036
1933,2037
1942,2038
1909,2039
1922,2040
1941,2041
1901,2042
1899,2043
1898,2044
1919,2045
1917,2046
1895,2047
1928,2048
1945,2049
1952,2050
1954,2051
1970,2052
1959,2053
1974,2054
1965,2055
1946,2056
1975,2057
1911,2058
1925,2059
1915,2060
1930,2061
1953,2062
1952,2063
1951,2064
1945,2065
1957,2066
1955,2067
1940,2068
1975,2069
1929,2070
1988,2071
1965,2072
1941,2073
1974,2074
1950,2075
1931,2076
1964,2077
1928,2078
1920,2079
1902,2080
1918,2081
1914,2082
1926,2083
1917,2084
1926,2085
1932,2086
1931,2087
1955,2088
1944,2089
1957,2090
1952,2091
1976,2092
1949,2093
1982,2094
1930,2095
1977,2096
1952,2097
1971,2098
1903,2099
1931,2100
1881,2101
1919,2102
1926,2103
1935,2104
1926,2105
1913,2106
1948,2107
1962,2108
1956,2109
1992,2110
1951,2111
1943,2112
1965,2113
1975,2114
1960,2115
1939,2116
1943,2117
1964,2118
1921,2119
1904,2120
1886,2121
1943,2122
1899,2123
1910,2124
1924,2125
1934,2126
1911,2127
1937,2128
1950,2129
1946,2130
1957,2131
1960,2132
1965,2133
1967,2134
1971,2135
1964,2136
1953,2137
1919,2138
1920,2139
1914,2140
1913,2141
1904,2142
1934,2143
1942,2144
1929,2145
1952,2146
1970,2147
1940,2148
1982,2149
1976,2150
1970,2151
1970,2152
1958,2153
1967,2154
1940,2155
1970,2156
1949,2157
1959,2158
1913,2159
1910,2160
1891,2161
1912,2162
1912,2163
1925,2164
1920,2165
1967,2166
1935,2167
1946,2168
1981,2169
1970,2170
1951,2171
1983,2172
1952,2173
1977,2174
1956,2175
1964,2176
1935,2177
1905,2178
1937,2179
1922,2180
1888,2181
1888,2182
1905,2183
1869,2184
1917,2185
1942,2186
1930,2187
1919,2188
1960,2189
1934,2190
1974,2191
1969,2192
1995,2193
1997,2194
1968,2195
1952,2196
1930,2197
1930,2198
1917,2199
1901,2200
1923,2201
1935,2202
1879,2203
1904,2204
1909,2205
1940,2206
1953,2207
1951,2208
1959,2209
1975,2210
1974,2211
1986,2212
2004,2213
1977,2214
1968,2215
1964,2216
1947,2217
1940,2218
1925,2219
1936,2220
1931,2221
1898,2222
1895,2223
1911,2224
1942,2225
1915,2226
1903,2227
1960,2228
1973,2229
1976,2230
1962,2231
1973,2232
1966,2233
1979,2234
1947,2235
1968,2236
1942,2237
1919,2238
1891,2239
1916,2240
1937,2241
1890,2242
1911,2243
1928,2244
1918,2245
1959,2246
1928,2247
1935,2248
1984,2249
1996,2250
1952,2251
1970,2252
1987,2253
1975,2254
1966,2255
1963,2256
1934,2257
1920,2258
1926,2259
1905,2260
1890,2261
1920,2262
1914,2263
1938,2264
1925,2265
1928,2266
1899,2267
1963,2268
1987,2269
1957,2270
1959,2271
1996,2272
2000,2273
1954,2274
1938,2275
1963,2276
1969,2277
1953,2278
1940,2279
1950,2280
1939,2281
1936,2282
1939,2283
1913,2284
1957,2285
1941,2286
1949,2287
1966,2288
1975,2289
1957,2290
1976,2291
1987,2292
1999,2293
1978,2294
1969,2295
1939,2296
1892,2297
1936,2298
1893,2299
1897,2300
1897,2301
1912,2302
1912,2303
1912,2304
1922,2305
1958,2306
1976,2307
1976,2308
1968,2309
1942,2310
1994,2311
1998,2312
1992,2313
1959,2314
1952,2315
1963,2316
1932,2317
1933,2318
1918,2319
1949,2320
1915,2321
1946,2322
1951,2323
1926,2324
1929,2325
1920,2326
1948,2327
1936,2328
1930,2329
1989,2330
1976,2331
1952,2332
1972,2333
1975,2334
1960,2335
1928,2336
1937,2337
1915,2338
1917,2339
1914,2340
1948,2341
1943,2342
1898,2343
1928,2344
1893,2345
1938,2346
1920,2347
1959,2348
1991,2349
1984,2350
2007,2351
1992,2352
1959,2353
1954,2354
1964,2355
1965,2356
1962,2357
1930,2358
1932,2359
1929,2360
1934,2361
1915,2362
1918,2363
1928,2364
1911,2365
1938,2366
1962,2367
1929,2368
1941,2369
1973,2370
1968,2371
1976,2372
2001,2373
1972,2374
1963,2375
1996,2376
1952,2377
1951,2378
1948,2379
1924,2380
1903,2381
1900,2382
1901,2383
1937,2384
1972,2385
1986,2386
1954,2387
1991,2388
1951,2389
1953,2390
1972,2391
1967,2392
1971,2393
1952,2394
1950,2395
1949,2396
1937,2397
1966,2398
1934,2399
1933,2400
1939,2401
1939,2402
1934,2403
1960,2404
1943,2405
1935,2406
1936,2407
1955,2408
1948,2409
1953,2410
2027,2411
1969,2412
1991,2413
1966,2414
1990,2415
1968,2416
1924,2417
1902,2418
1923,2419
1954,2420
1892,2421
1911,2422
1904,2423
1911,2424
1912,2425
1943,2426
1951,2427
1961,2428
1960,2429
1967,2430
1950,2431
1977,2432
1986,2433
1952,2434
1961,2435
1941,2436
1938,2437
1932,2438
1921,2439
1927,2440
1900,2441
1876,2442
1933,2443
1909,2444
1921,2445
1974,2446
1939,2447
1946,2448
1955,2449
1977,2450
1947,2451
1993,2452
1991,2453
1939,2454
1989,2455
1965,2456
1976,2457
1957,2458
1895,2459
1925,2460
1920,2461
1905,2462
1886,2463
1919,2464
1926,2465
1930,2466
1952,2467
1966,2468
1955,2469
1979,2470
1959,2471
1968,2472
1986,2473
1972,2474
1960,2475
1969,2476
1937,2477
1935,2478
1930,2479
1920,2480
1938,2481
1924,2482
1885,2483
1922,2484
1943,2485
1943,2486
1952,2487
1964,2488
1967,2489
1986,2490
1996,2491
1975,2492
2006,2493
1974,2494
1963,2495
1963,2496
1979,2497
1930,2498
1939,2499
1887,2500
1913,2501
1879,2502
1927,2503
1914,2504
1929,2505
1943,2506
1943,2507
1967,2508
1961,2509
1988,2510
1946,2511
2009,2512
1958,2513
1976,2514
1947,2515
1959,2516
1952,2517
1912,2518
1908,2519
1920,2520
1921,2521
1924,2522
1913,2523
1937,2524
1923,2525
1928,2526
1921,2527
1938,2528
1923,2529
1970,2530
1984,2531
2004,2532
1983,2533
1999,2534
1979,2535
1987,2536
1982,2537
1938,2538
1958,2539
1931,2540
1947,2541
1932,2542
1938,2543
1925,2544
1931,2545
1920,2546
1957,2547
1936,2548
1968,2549
1989,2550
1988,2551
1979,2552
2003,2553
1997,2554
1975,2555
1943,2556
1944,2557
1919,2558
1928,2559
1912,2560
1904,2561
1906,2562
1909,2563
1929,2564
1930,2565
1912,2566
1956,2567
1976,2568
1984,2569
1990,2570
1982,2571
1971,2572
1968,2573
1997,2574
1975,2575
1940,2576
1931,2577
1943,2578
1931,2579
1903,2580
1900,2581
1923,2582
1920,2583
1924,2584
1906,2585
1948,2586
1963,2587
1942,2588
1968,2589
1952,2590
1946,2591
1991,2592
2001,2593
1984,2594
1948,2595
1943,2596
1926,2597
1941,2598
1938,2599
1930,2600
1931,2601
1917,2602
1909,2603
1913,2604
1908,2605
1934,2606
1917,2607
1978,2608
1970,2609
1980,2610
1976,2611
2018,2612
1986,2613
1973,2614
1941,2615
1946,2616
1918,2617
1936,2618
1892,2619
1916,2620
1907,2621
1907,2622
1935,2623
1955,2624
1930,2625
1928,2626
1955,2627
1969,2628
1980,2629
1967,2630
1957,2631
1981,2632
1925,2633
1964,2634
1938,2635
1976,2636
1928,2637
1917,2638
1920,2639
1896,2640
1967,2641
1919,2642
1940,2643
1922,2644
1919,2645
1941,2646
1924,2647
1945,2648
1939,2649
1968,2650
2000,2651
2008,2652
2009,2653
1972,2654
1975,2655
1956,2656
1923,2657
1895,2658
1929,2659
1935,2660
1914,2661
1917,2662
1921,2663
1941,2664
1946,2665
1911,2666
1941,2667
1962,2668
1966,2669
1988,2670
1978,2671
1981,2672
1943,2673
1968,2674
1977,2675
1944,2676
1954,2677
1931,2678
1949,2679
1945,2680
1955,2681
1944,2682
1928,2683
1977,2684
1939,2685
1922,2686
1938,2687
1960,2688
1949,2689
1968,2690
1972,2691
1957,2692
1943,2693
1968,2694
1981,2695
1951,2696
1961,2697
1954,2698
1924,2699
1932,2700
1929,2701
1899,2702
1913,2703
1927,2704
1925,2705
1918,2706
1927,2707
1937,2708
1961,2709
1954,2710
1972,2711
1990,2712
1981,2713
1992,2714
1947,2715
1971,2716
1967,2717
1938,2718
1929,2719
1910,2720
1926,2721
1960,2722
1964,2723
1949,2724
1939,2725
1974,2726
1955,2727
1959,2728
1967,2729
1943,2730
1979,2731
1949,2732
1964,2733
1976,2734
1940,2735
1938,2736
1954,2737
1945,2738
1906,2739
1966,2740
1901,2741
1928,2742
1920,2743
1949,2744
1942,2745
1982,2746
1941,2747
1965,2748
1944,2749
1962,2750
1933,2751
1978,2752
1989,2753
1971,2754
1932,2755
1941,2756
1956,2757
1956,2758
1915,2759
1940,2760
1950,2761
1941,2762
1923,2763
1914,2764
1955,2765
1954,2766
1962,2767
1966,2768
1984,2769
1970,2770
1994,2771
1957,2772
1981,2773
1953,2774
1943,2775
1944,2776
1934,2777
1940,2778
1916,2779
1921,2780
1943,2781
1977,2782
1927,2783
1929,2784
1923,2785
1952,2786
1941,2787
1952,2788
1990,2789
1951,2790
1983,2791
1982,2792
1997,2793
1981,2794
1939,2795
1951,2796
1945,2797
1943,2798
1924,2799
1904,2800
1936,2801
1932,2802
1905,2803
1919,2804
1923,2805
1923,2806
1955,2807
1964,2808
1975,2809
1960,2810
1991,2811
1996,2812
1966,2813
1985,2814
1958,2815
1953,2816
1936,2817
1918,2818
1930,2819
1929,2820
1931,2821
1920,2822
1933,2823
1896,2824
1949,2825
1943,2826
1976,2827
1942,2828
1956,2829
1975,2830
1989,2831
1979,2832
1975,2833
1952,2834
1947,2835
1967,2836
1954,2837
1948,2838
1933,2839
1927,2840
1932,2841
1931,2842
1922,2843
1967,2844
1959,2845
1958,2846
1963,2847
1949,2848
1967,2849
1970,2850
1988,2851
1997,2852
1973,2853
1968,2854
1950,2855
1951,2856
1952,2857
1924,2858
1935,2859
1935,2860
1924,2861
1913,2862
1935,2863
1927,2864
1924,2865
1964,2866
1956,2867
1961,2868
1966,2869
1955,2870
1947,2871
1986,2872
1948,2873
1983,2874
1937,2875
1940,2876
1968,2877
1924,2878
1906,2879
1905,2880
1909,2881
1898,2882
1961,2883
1955,2884
1945,2885
1931,2886
1982,2887
1965,2888
1982,2889
1988,2890
1939,2891
1979,2892
1950,2893
1961,2894
1942,2895
1973,2896
1939,2897
1930,2898
1926,2899
1934,2900
1911,2901
1935,2902
1920,2903
1953,2904
1965,2905
1936,2906
1952,2907
1956,2908
1992,2909
1958,2910
1977,2911
1965,2912
1932,2913
1938,2914
1958,2915
1954,2916
1927,2917
1914,2918
1939,2919
1901,2920
1936,2921
1893,2922
1913,2923
1949,2924
1950,2925
1951,2926
1975,2927
1979,2928
1975,2929
1964,2930
1959,2931
1959,2932
1943,2933
1924,2934
1935,2935
1927,2936
1932,2937
1940,2938
1907,2939
1912,2940
1927,2941
1939,2942
1926,2943
1924,2944
1959,2945
1964,2946
1985,2947
1957,2948
1983,2949
1972,2950
1986,2951
1976,2952
1962,2953
1979,2954
1952,2955
1971,2956
1955,2957
1916,2958
1942,2959
1903,2960
1903,2961
1942,2962
1951,2963
1932,2964
1950,2965
1946,2966
1925,2967
1945,2968
1975,2969
1955,2970
1999,2971
1980,2972
1963,2973
1970,2974
1961,2975
1930,2976
1939,2977
1902,2978
1908,2979
1927,2980
1908,2981
1919,2982
1894,2983
1915,2984
1936,2985
1929,2986
1967,2987
1942,2988
1982,2989
1971,2990
1967,2991
2002,2992
1992,2993
1968,2994
1966,2995
1954,2996
1929,2997
1928,2998
1939,2999
1955,3000
1949,3001
1936,3002
1932,3003
1946,3004
1956,3005
1971,3006
1940,3007
1963,3008
1949,3009
1947,3010
1967,3011
1962,3012
1968,3013
1941,3014
1945,3015
1945,3016
1943,3017
1938,3018
1937,3019
1920,3020
1917,3021
1922,3022
1932,3023
1949,3024
1960,3025
1938,3026
1948,3027
1929,3028
1916,3029
1974,3030
1966,3031
1979,3032
1969,3033
1976,3034
1927,3035
1925,3036
1923,3037
1883,3038
1929,3039
1902,3040
1919,3041
1944,3042
1923,3043
1930,3044
1955,3045
1952,3046
1961,3047
1935,3048
1971,3049
2004,3050
2019,3051
2023,3052
1971,3053
1971,3054
1944,3055
1914,3056
1944,3057
1915,3058
1930,3059
1928,3060
1935,3061
1939,3062
1927,3063
1943,3064
1962,3065
1964,3066
1937,3067
1971,3068
1999,3069
1986,3070
1997,3071
1990,3072
1971,3073
1982,3074
1948,3075
1943,3076
1910,3077
1952,3078
1951,3079
1940,3080
1915,3081
1927,3082
1910,3083
1916,3084
1926,3085
1955,3086
1975,3087
1986,3088
1976,3089
1941,3090
1984,3091
1975,3092
1944,3093
1956,3094
1935,3095
1961,3096
1956,3097
1960,3098
1937,3099
1891,3100
1930,3101
1928,3102
1916,3103
1925,3104
1951,3105
1960,3106
1974,3107
1945,3108
1988,3109
1987,3110
1986,3111
2029,3112
1943,3113
1970,3114
1955,3115
1979,3116
1958,3117
1925,3118
1909,3119
1926,3120
1926,3121
1919,3122
1935,3123
1927,3124
1965,3125
1935,3126
1957,3127
1950,3128
1958,3129
1980,3130
1973,3131
1980,3132
1956,3133
1944,3134
1930,3135
1927,3136
1927,3137
1921,3138
1913,3139
1905,3140
1945,3141
1920,3142
1940,3143
1952,3144
1917,3145
1961,3146
1944,3147
1980,3148
1959,3149
1954,3150
2015,3151
1962,3152
1982,3153
1952,3154
1939,3155
1956,3156
1936,3157
1945,3158
1904,3159
1925,3160
1915,3161
1936,3162
1927,3163
1939,3164
1952,3165
1943,3166
1943,3167
1974,3168
1960,3169
1958,3170
1955,3171
1999,3172
1950,3173
1944,3174
1927,3175
1929,3176
1915,3177
1943,3178
1927,3179
1922,3180
1947,3181
1932,3182
1945,3183
1938,3184
2002,3185
1995,3186
1991,3187
1967,3188
1973,3189
1969,3190
1960,3191
1942,3192
1954,3193
1968,3194
1961,3195
1918,3196
1908,3197
1935,3198
1891,3199
1903,3200
1939,3201
1918,3202
1956,3203
1934,3204
1964,3205
1976,3206
1938,3207
1959,3208
1949,3209
1935,3210
1947,3211
1976,3212
1980,3213
1922,3214
1943,3215
1961,3216
1954,3217
1943,3218
1948,3219
1930,3220
1931,3221
1913,3222
1953,3223
1953,3224
1958,3225
1951,3226
1976,3227
1969,3228
1976,3229
1978,3230
1973,3231
1923,3232
1976,3233
1945,3234
1929,3235
1930,3236
1959,3237
1907,3238
1928,3239
1929,3240
1927,3241
1929,3242
1908,3243
1936,3244
1956,3245
1948,3246
1981,3247
1978,3248
1963,3249
1989,3250
1975,3251
1978,3252
1953,3253
1969,3254
1973,3255
1941,3256
1927,3257
1913,3258
1949,3259
1927,3260
1942,3261
1905,3262
1924,3263
1933,3264
1927,3265
1943,3266
1958,3267
1963,3268
1978,3269
1956,3270
1971,3271
1955,3272
1972,3273
1956,3274
1940,3275
1939,3276
1937,3277
1915,3278
1928,3279
1930,3280
1940,3281
1932,3282
1903,3283
1933,3284
1957,3285
1959,3286
1991,3287
1961,3288
1975,3289
1993,3290
1984,3291
1995,3292
1952,3293
1940,3294
1936,3295
1939,3296
1906,3297
1911,3298
1889,3299
1903,3300
1885,3301
1929,3302
1916,3303
1939,3304
1934,3305
1945,3306
1959,3307
1991,3308
1983,3309
2020,3310
2008,3311
1976,3312
1961,3313
1951,3314
1947,3315
1949,3316
1927,3317
1917,3318
1928,3319
1945,3320
1900,3321
1948,3322
1943,3323
1939,3324
1929,3325
1972,3326
1967,3327
1975,3328
1982,3329
1984,3330
1978,3331
2006,3332
1981,3333
1940,3334
1916,3335
1931,3336
1926,3337
1906,3338
1941,3339
1924,3340
1907,3341
1927,3342
1921,3343
1923,3344
1952,3345
1950,3346
1967,3347
1998,3348
2013,3349
1983,3350
2005,3351
1990,3352
1984,3353
1975,3354
1947,3355
1920,3356
1925,3357
1957,3358
1909,3359
1916,3360
1942,3361
1906,3362
1915,3363
1944,3364
1954,3365
1984,3366
1997,3367
1998,3368
1959,3369
1944,3370
1951,3371
1985,3372
1972,3373
1955,3374
1962,3375
1969,3376
1978,3377
1926,3378
1924,3379
1911,3380
1960,3381
1925,3382
1933,3383
1951,3384
1955,3385
1988,3386
1960,3387
1983,3388
1990,3389
1991,3390
1992,3391
1987,3392
1955,3393
1921,3394
1906,3395
1921,3396
1923,3397
1921,3398
1938,3399
1875,3400
1917,3401
1911,3402
1938,3403
1920,3404
1956,3405
1992,3406
1986,3407
1980,3408
2000,3409
1998,3410
1987,3411
1963,3412
1996,3413
1962,3414
1927,3415
1938,3416
1908,3417
1898,3418
1896,3419
1925,3420
1893,3421
1911,3422
1913,3423
1942,3424
1960,3425
1969,3426
1986,3427
1956,3428
1980,3429
1996,3430
1998,3431
1988,3432
1951,3433
1987,3434
1931,3435
1959,3436
1943,3437
1943,3438
1909,3439
1915,3440
1903,3441
1956,3442
1938,3443
1945,3444
1930,3445
1948,3446
1948,3447
1999,3448
1989,3449
2028,3450
1974,3451
1989,3452
1925,3453
1943,3454
1923,3455
1951,3456
1906,3457
1918,3458
1887,3459
1915,3460
1904,3461
1917,3462
1938,3463
1912,3464
1923,3465
1929,3466
1983,3467
1973,3468
1987,3469
1971,3470
1992,3471
1962,3472
1980,3473
1971,3474
1939,3475
1960,3476
1942,3477
1927,3478
1914,3479
1932,3480
1943,3481
1950,3482
1953,3483
1983,3484
1982,3485
1968,3486
2002,3487
1987,3488
2009,3489
1976,3490
2024,3491
1966,3492
1982,3493
1955,3494
1947,3495
1933,3496
1914,3497
1927,3498
1897,3499
1902,3500
1919,3501
1943,3502
1911,3503
1954,3504
1952,3505
1984,3506
1950,3507
1967,3508
1982,3509
1942,3510
1975,3511
1968,3512
1935,3513
1924,3514
1944,3515
1933,3516
1933,3517
1944,3518
1890,3519
1911,3520
1901,3521
1953,3522
1909,3523
1945,3524
1963,3525
2024,3526
1963,3527
1953,3528
2000,3529
2022,3530
2005,3531
1979,3532
1969,3533
1939,3534
1954,3535
1940,3536
1920,3537
1939,3538
1890,3539
1894,3540
1918,3541
1933,3542
1907,3543
1943,3544
1961,3545
1960,3546
1986,3547
1985,3548
1983,3549
1986,3550
2002,3551
1980,3552
1978,3553
1938,3554
1923,3555
1962,3556
1935,3557
1937,3558
1899,3559
1937,3560
1934,3561
1923,3562
1953,3563
1916,3564
1967,3565
1927,3566
1989,3567
1957,3568
1988,3569
2002,3570
1997,3571
1988,3572
1971,3573
1962,3574
1942,3575
1934,3576
1935,3577
1926,3578
1945,3579
1925,3580
1922,3581
1925,3582
1927,3583
1938,3584
1936,3585
1936,3586
1951,3587
1970,3588
1998,3589
1976,3590
1954,3591
1990,3592
1972,3593
1960,3594
1931,3595
1935,3596
1946,3597
1943,3598
1909,3599
1924,3600
1883,3601
1919,3602
1940,3603
1914,3604
1938,3605
1919,3606
1973,3607
1991,3608
1966,3609
1975,3610
1967,3611
1984,3612
1954,3613
1964,3614
1942,3615
1907,3616
1915,3617
1944,3618
1982,3619
1916,3620
1947,3621
1939,3622
1905,3623
1903,3624
1955,3625
1970,3626
1973,3627
1976,3628
1994,3629
1969,3630
1989,3631
1972,3632
1930,3633
1965,3634
1943,3635
1965,3636
1951,3637
1973,3638
1973,3639
1951,3640
1940,3641
1932,3642
1970,3643
1974,3644
1991,3645
1958,3646
1953,3647
1970,3648
1966,3649
1972,3650
1952,3651
1924,3652
1970,3653
1975,3654
1944,3655
1953,3656
1938,3657
1944,3658
1919,3659
1936,3660
1929,3661
1925,3662
1907,3663
1927,3664
1948,3665
1913,3666
1944,3667
1935,3668
1969,3669
1969,3670
1966,3671
1961,3672
1986,3673
1984,3674
1984,3675
1980,3676
1947,3677
1921,3678
1871,3679
1891,3680
1922,3681
1896,3682
1909,3683
1953,3684
1937,3685
1968,3686
1947,3687
1945,3688
1938,3689
1979,3690
1991,3691
2001,3692
1945,3693
1965,3694
1947,3695
1929,3696
1925,3697
1932,3698
1923,3699
1915,3700
1914,3701
1904,3702
1960,3703
1974,3704
1931,3705
2002,3706
1967,3707
1997,3708
1996,3709
1982,3710
1990,3711
1972,3712
1980,3713
1990,3714
1961,3715
1926,3716
1925,3717
1894,3718
1903,3719
1953,3720
1926,3721
1947,3722
1962,3723
1933,3724
1970,3725
1984,3726
1987,3727
1954,3728
1952,3729
1977,3730
1989,3731
1943,3732
1929,3733
1914,3734
1884,3735
1948,3736
1955,3737
1922,3738
1976,3739
1943,3740
1983,3741
1961,3742
1983,3743
1951,3744
1967,3745
1933,3746
1953,3747
1931,3748
1930,3749
1932,3750
1959,3751
1938,3752
1934,3753
1928,3754
1941,3755
1965,3756
1933,3757
1965,3758
1923,3759
1923,3760
1930,3761
1899,3762
1922,3763
1954,3764
1967,3765
1989,3766
1981,3767
1994,3768
1973,3769
1985,3770
1974,3771
1951,3772
2004,3773
1976,3774
1988,3775
1967,3776
1952,3777
1956,3778
1931,3779
1924,3780
1919,3781
1936,3782
1939,3783
1932,3784
1915,3785
1924,3786
1943,3787
1968,3788
1958,3789
1976,3790
1995,3791
1982,3792
1951,3793
1942,3794
1938,3795
1941,3796
1933,3797
1957,3798
1956,3799
1917,3800
1954,3801
1893,3802
1988,3803
1941,3804
1962,3805
1942,3806
1966,3807
1952,3808
1971,3809
1942,3810
1951,3811
1977,3812
1953,3813
1945,3814
1918,3815
1924,3816
1920,3817
1913,3818
1967,3819
1907,3820
1895,3821
1927,3822
1915,3823
1928,3824
1948,3825
1943,3826
1953,3827
1962,3828
1978,3829
1988,3830
1947,3831
1962,3832
1972,3833
2002,3834
1951,3835
1922,3836
1950,3837
1949,3838
1911,3839
1910,3840
1949,3841
1935,3842
1963,3843
1927,3844
1986,3845
1934,3846
1958,3847
1979,3848
1972,3849
1955,3850
1949,3851
1974,3852
1941,3853
1909,3854
1893,3855
1920,3856
1904,3857
1886,3858
1938,3859
1903,3860
1888,3861
1898,3862
1925,3863
1913,3864
1936,3865
1960,3866
1985,3867
1965,3868
1966,3869
1974,3870
1968,3871
1961,3872
1968,3873
1944,3874
1890,3875
1934,3876
1891,3877
1941,3878
1932,3879
1917,3880
1924,3881
1903,3882
1902,3883
1901,3884
1951,3885
1943,3886
1972,3887
1975,3888
1987,3889
1962,3890
1935,3891
1968,3892
1977,3893
1973,3894
1964,3895
1973,3896
1948,3897
1955,3898
1915,3899
1926,3900
1908,3901
1915,3902
1909,3903
1915,3904
1968,3905
1938,3906
1984,3907
1955,3908
1991,3909
1911,3910
1949,3911
1934,3912
1928,3913
1919,3914
1939,3915
1917,3916
1871,3917
1904,3918
1916,3919
1872,3920
1912,3921
1907,3922
1912,3923
1916,3924
1935,3925
1952,3926
1964,3927
1972,3928
1970,3929
2010,3930
1998,3931
1963,3932
1969,3933
1952,3934
1947,3935
1885,3936
1913,3937
1920,3938
1902,3939
1875,3940
1888,3941
1911,3942
1935,3943
1953,3944
1958,3945
1970,3946
1967,3947
2005,3948
2013,3949
1952,3950
1984,3951
1944,3952
1905,3953
1939,3954
1921,3955
1916,3956
1904,3957
1882,3958
1875,3959
1849,3960
1877,3961
1892,3962
1887,3963
1874,3964
1917,3965
1934,3966
1950,3967
1945,3968
1994,3969
1971,3970
1952,3971
1934,3972
1968,3973
1941,3974
1936,3975
1953,3976
1889,3977
1908,3978
1874,3979
1896,3980
1920,3981
1925,3982
1920,3983
1941,3984
1968,3985
1942,3986
1978,3987
1981,3988
2014,3989
2039,3990
1979,3991
1983,3992
1986,3993
1957,3994
1901,3995
1917,3996
1887,3997
1848,3998
1868,3999
1856,4000
1814,4001
1867,4002
1855,4003
1892,4004
1917,4005
1948,4006
1971,4007
1979,4008
2000,4009
2003,4010
1946,4011
1955,4012
1887,4013
1915,4014
1856,4015
1856,4016
1819,4017
1823,4018
1808,4019
1846,4020
1818,4021
1896,4022
1901,4023
1915,4024
1930,4025
1969,4026
1959,4027
1990,4028
1971,4029
1995,4030
2015,4031
1967,4032
1984,4033
1943,4034
1958,4035
1913,4036
1906,4037
1873,4038
1884,4039
1895,4040
1906,4041
1912,4042
1895,4043
1934,4044
1953,4045
1960,4046
1966,4047
1997,4048
1978,4049
1970,4050
1987,4051
1934,4052
1950,4053
1945,4054
1954,4055
1949,4056
1919,4057
1923,4058
1935,4059
1959,4060
1940,4061
1946,4062
1995,4063
2013,4064
2007,4065
2058,4066
2081,4067
2006,4068
2020,4069
1955,4070
1911,4071
1930,4072
1908,4073
1916,4074
1886,4075
1824,4076
1812,4077
1847,4078
1849,4079
1891,4080
1901,4081
1930,4082
1912,4083
1952,4084
1976,4085
1992,4086
2005,4087
1965,4088
1956,4089
1968,4090
1993,4091
1955,4092
1952,4093
1935,4094
1933,4095
1947,4096
1948,4097
1907,4098
1890,4099
1886,4100
1901,4101
1909,4102
1904,4103
1911,4104
1923,4105
1932,4106
1920,4107
1932,4108
1964,4109
1960,4110
1960,4111
1967,4112
1985,4113
1965,4114
1966,4115
1952,4116
1921,4117
1909,4118
1875,4119
1848,4120
1841,4121
1902,4122
1935,4123
1916,4124
1933,4125
1963,4126
1957,4127
1948,4128
1999,4129
2009,4130
2060,4131
2045,4132
2063,4133
2050,4134
2017,4135
1992,4136
1940,4137
1887,4138
1869,4139
1825,4140
1891,4141
1854,4142
1867,4143
1900,4144
1939,4145
1940,4146
1994,4147
2053,4148
2091,4149
2102,4150
2118,4151
2075,4152
1989,4153
1951,4154
1865,4155
1827,4156
1818,4157
1841,4158
1831,4159
1830,4160
1896,4161
1902,4162
1927,4163
1969,4164
1953,4165
1961,4166
1959,4167
1948,4168
1964,4169
1942,4170
1930,4171
1906,4172
1916,4173
1894,4174
1936,4175
1874,4176
1907,4177
1900,4178
1908,4179
1874,4180
1937,4181
1930,4182
1942,4183
1925,4184
1945,4185
1959,4186
1966,4187
1947,4188
1982,4189
1945,4190
1976,4191
1966,4192
1978,4193
1903,4194
1960,4195
1945,4196
1960,4197
1918,4198
1909,4199
1912,4200
1906,4201
1942,4202
1957,4203
2014,4204
2055,4205
2028,4206
2045,4207
2032,4208
1964,4209
1945,4210
1964,4211
1908,4212
1941,4213
1892,4214
1936,4215
1946,4216
1898,4217
1924,4218
1893,4219
1847,4220
1863,4221
1890,4222
1900,4223
1866,4224
1826,4225
1838,4226
1866,4227
1870,4228
1946,4229
1911,4230
1882,4231
1922,4232
1889,4233
1903,4234
1900,4235
1908,4236
1885,4237
1908,4238
1887,4239
1915,4240
1897,4241
1873,4242
1943,4243
1923,4244
1945,4245
1941,4246
1965,4247
1970,4248
2008,4249
1957,4250
1963,4251
1937,4252
1969,4253
1956,4254
1985,4255
1956,4256
1961,4257
1927,4258
1918,4259
1904,4260
1914,4261
1884,4262
1860,4263
1902,4264
1910,4265
1900,4266
1903,4267
1925,4268
1920,4269
1942,4270
1940,4271
1984,4272
1929,4273
1932,4274
1925,4275
1908,4276
1885,4277
1884,4278
1853,4279
1839,4280
1868,4281
1874,4282
1879,4283
1868,4284
1934,4285
1918,4286
1964,4287
1935,4288
1952,4289
2000,4290
1996,4291
1971,4292
2039,4293
1993,4294
1957,4295
2000,4296
1997,4297
1978,4298
1990,4299
1894,4300
1877,4301
1794,4302
1785,4303
1800,4304
1840,4305
1814,4306
1854,4307
1865,4308
1935,4309
1905,4310
1953,4311
1917,4312
1994,4313
1900,4314
1966,4315
1939,4316
1961,4317
1932,4318
1935,4319
1920,4320
1933,4321
1895,4322
1951,4323
1982,4324
1990,4325
1927,4326
2024,4327
1996,4328
2077,4329
2158,4330
2155,4331
2143,4332
2102,4333
1996,4334
1948,4335
1940,4336
1871,4337
1848,4338
1760,4339
1798,4340
1777,4341
1809,4342
1828,4343
1894,4344
1912,4345
1983,4346
1993,4347
2033,4348
1955,4349
1969,4350
1911,4351
1916,4352
1911,4353
1930,4354
1890,4355
1882,4356
1883,4357
1879,4358
1855,4359
1862,4360
1917,4361
1851,4362
1903,4363
1935,4364
1985,4365
2069,4366
2120,4367
2099,4368
2128,4369
2071,4370
1987,4371
1984,4372
1961,4373
1928,4374
1862,4375
1790,4376
1783,4377
1816,4378
1756,4379
1847,4380
1854,4381
1874,4382
1916,4383
1887,4384
1942,4385
1927,4386
1961,4387
1959,4388
1957,4389
1979,4390
1982,4391
1982,4392
1983,4393
1933,4394
1923,4395
1951,4396
1895,4397
1897,4398
1859,4399
1969,4400
1912,4401
1968,4402
1920,4403
1898,4404
1928,4405
1909,4406
1938,4407
1929,4408
1956,4409
1935,4410
1898,4411
1869,4412
1852,4413
1836,4414
1799,4415
1844,4416
1856,4417
1840,4418
1838,4419
1848,4420
1857,4421
1888,4422
1924,4423
1985,4424
1995,4425
2006,4426
2021,4427
2054,4428
2134,4429
2108,4430
2110,4431
2087,4432
2016,4433
1936,4434
1862,4435
1812,4436
1760,4437
1713,4438
1724,4439
1762,4440
1770,4441
1840,4442
1837,4443
1916,4444
1897,4445
1924,4446
1967,4447
2015,4448
2032,4449
2044,4450
2008,4451
1981,4452
1989,4453
1966,4454
1971,4455
1990,4456
1865,4457
1870,4458
1755,4459
1798,4460
1807,4461
1792,4462
1770,4463
1827,4464
1838,4465
1878,4466
1868,4467
1862,4468
1909,4469
1885,4470
1897,4471
1932,4472
1888,4473
1851,4474
1853,4475
1926,4476
1897,4477
1967,4478
1933,4479
1952,4480
1956,4481
1972,4482
1949,4483
1956,4484
1926,4485
1903,4486
1899,4487
1938,4488
1954,4489
1918,4490
1979,4491
1918,4492
1943,4493
1890,4494
1847,4495
1864,4496
1798,4497
1757,4498
1739,4499
1781,4500
1781,4501
1792,4502
1837,4503
1884,4504
1922,4505
1944,4506
1976,4507
1936,4508
1968,4509
1971,4510
1969,4511
1916,4512
1886,4513
1865,4514
1851,4515
1805,4516
1795,4517
1809,4518
1773,4519
1842,4520
1831,4521
1898,4522
1908,4523
1915,4524
1913,4525
1921,4526
1985,4527
2092,4528
2117,4529
2110,4530
2023,4531
1981,4532
1943,4533
1918,4534
1825,4535
1803,4536
1817,4537
1822,4538
1822,4539
1833,4540
1857,4541
1880,4542
1899,4543
1928,4544
1949,4545
1987,4546
2001,4547
1968,4548
1962,4549
1949,4550
1902,4551
1848,4552
1823,4553
1827,4554
1804,4555
1793,4556
1813,4557
1820,4558
1781,4559
1810,4560
1796,4561
1848,4562
1849,4563
1849,4564
1864,4565
1930,4566
1998,4567
1981,4568
2011,4569
2074,4570
2097,4571
2025,4572
1979,4573
1976,4574
1935,4575
1991,4576
1999,4577
1995,4578
1949,4579
1954,4580
2020,4581
2035,4582
2023,4583
2051,4584
2008,4585
1941,4586
1972,4587
1966,4588
1973,4589
2061,4590
2136,4591
2106,4592
2071,4593
2008,4594
1915,4595
1811,4596
1752,4597
1720,4598
1699,4599
1763,4600
1746,4601
1703,4602
1738,4603
1903,4604
1953,4605
1983,4606
1944,4607
1895,4608
1874,4609
1853,4610
1866,4611
1867,4612
1820,4613
1818,4614
1808,4615
1852,4616
1902,4617
1905,4618
1942,4619
1956,4620
1947,4621
1870,4622
1812,4623
1784,4624
1819,4625
1879,4626
1874,4627
1859,4628
1875,4629
1852,4630
1879,4631
1828,4632
1890,4633
1875,4634
1922,4635
1948,4636
1910,4637
1894,4638
1912,4639
1922,4640
1958,4641
1924,4642
1943,4643
1977,4644
2042,4645
2047,4646
2017,4647
2002,4648
1906,4649
1876,4650
1752,4651
1687,4652
1665,4653
1652,4654
1707,4655
1848,4656
2103,4657
2140,4658
2150,4659
2242,4660
2326,4661
2270,4662
2190,4663
2093,4664
2017,4665
1949,4666
1947,4667
1913,4668
1889,4669
1941,4670
1975,4671
1941,4672
1942,4673
1889,4674
1820,4675
1716,4676
1655,4677
1607,4678
1550,4679
1591,4680
1579,4681
1759,4682
1987,4683
2037,4684
2000,4685
1984,4686
1946,4687
1865,4688
1878,4689
1851,4690
1857,4691
1856,4692
1825,4693
1685,4694
1715,4695
1798,4696
1835,4697
1862,4698
1848,4699
1816,4700
1813,4701
1741,4702
1719,4703
1739,4704
1798,4705
1833,4706
1896,4707
1866,4708
1830,4709
1795,4710
1739,4711
1675,4712
1692,4713
1660,4714
1619,4715
1669,4716
1768,4717
1820,4718
1860,4719
1964,4720
2072,4721
2168,4722
2188,4723
2317,4724
2376,4725
2248,4726
2190,4727
2062,4728
1897,4729
1720,4730
1583,4731
1540,4732
1449,4733
1378,4734
1412,4735
1677,4736
1894,4737
1937,4738
1912,4739
1971,4740
2101,4741
2200,4742
2185,4743
2062,4744
2042,4745
2033,4746
1967,4747
1885,4748
1775,4749
1649,4750
1552,4751
1497,4752
1499,4753
1516,4754
1523,4755
1507,4756
1671,4757
1818,4758
1909,4759
1927,4760
1912,4761
1946,4762
1899,4763
1851,4764
1790,4765
1749,4766
1697,4767
1684,4768
1683,4769
1703,4770
1714,4771
1707,4772
1724,4773
1742,4774
1812,4775
1992,4776
2042,4777
2031,4778
2018,4779
2084,4780
2182,4781
2335,4782
2488,4783
2410,4784
2291,4785
2091,4786
1928,4787
1811,4788
1675,4789
1516,4790
1400,4791
1313,4792
1401,4793
1472,4794
1641,4795
1625,4796
1639,4797
1640,4798
1668,4799
1681,4800
1704,4801
1866,4802
2100,4803
2431,4804
2565,4805
2430,4806
2227,4807
2000,4808
1812,4809
1644,4810
1522,4811
1444,4812
1492,4813
1525,4814
1600,4815
1603,4816
1623,4817
1702,4818
1748,4819
1741,4820
1671,4821
1618,4822
1661,4823
1736,4824
1749,4825
1841,4826
1973,4827
2115,4828
2197,4829
2146,4830
2069,4831
2055,4832
1969,4833
1914,4834
1846,4835
1719,4836
1646,4837
1613,4838
1646,4839
1638,4840
1585,4841
1625,4842
1635,4843
1735,4844
1793,4845
1873,4846
1913,4847
2083,4848
2185,4849
2190,4850
2195,4851
2239,4852
2235,4853
2151,4854
2023,4855
1889,4856
1752,4857
1693,4858
1700,4859
1762,4860
1791,4861
1913,4862
2025,4863
1991,4864
1896,4865
1716,4866
1683,4867
1694,4868
1887,4869
2077,4870
2083,4871
2003,4872
1848,4873
1740,4874
1599,4875
1552,4876
1577,4877
1562,4878
1471,4879
1567,4880
1646,4881
1769,4882
1790,4883
1823,4884
1992,4885
2375,4886
2552,4887
2466,4888
2318,4889
2064,4890
1878,4891
1668,4892
1574,4893
1371,4894
1265,4895
1275,4896
1399,4897
1471,4898
1573,4899
1614,4900
1686,4901
1751,4902
1843,4903
1863,4904
1917,4905
1932,4906
1888,4907
1897,4908
1991,4909
2151,4910
2284,4911
2326,4912
2283,4913
2224,4914
1982,4915
1876,4916
1684,4917
1561,4918
1578,4919
1608,4920
1699,4921
1805,4922
1859,4923
1889,4924
1942,4925
2011,4926
1992,4927
1901,4928
1792,4929
1645,4930
1570,4931
1543,4932
1480,4933
1473,4934
1518,4935
1559,4936
1612,4937
1673,4938
1768,4939
2098,4940
2508,4941
2615,4942
2504,4943
2320,4944
2127,4945
1860,4946
1611,4947
1523,4948
1517,4949
1515,4950
1668,4951
1696,4952
1816,4953
1840,4954
1812,4955
1824,4956
1822,4957
1923,4958
1903,4959
1902,4960
1934,4961
1905,4962
2024,4963
2075,4964
2030,4965
1990,4966
2035,4967
2149,4968
2124,4969
2032,4970
1965,4971
1796,4972
1697,4973
1610,4974
1547,4975
1498,4976
1431,4977
1446,4978
1395,4979
1470,4980
1588,4981
1677,4982
1784,4983
1972,4984
2122,4985
2166,4986
2156,4987
2037,4988
1991,4989
1986,4990
2075,4991
2155,4992
2110,4993
1926,4994
1856,4995
1712,4996
1667,4997
1553,4998
1561,4999
1775,5000
1864,5001
1815,5002
1757,5003
1783,5004
1797,5005
1850,5006
1813,5007
1820,5008
1794,5009
1760,5010
1633,5011
1714,5012
1771,5013
1861,5014
1964,5015
2005,5016
2057,5017
1981,5018
1923,5019
1815,5020
1742,5021
1655,5022
1678,5023
1785,5024
1867,5025
1910,5026
1887,5027
1827,5028
1784,5029
1712,5030
1593,5031
1637,5032
1770,5033
1877,5034
1956,5035
2000,5036
1935,5037
1819,5038
1809,5039
1800,5040
1807,5041
1811,5042
1870,5043
1913,5044
1944,5045
1940,5046
1951,5047
2015,5048
2003,5049
1881,5050
1828,5051
1854,5052
1899,5053
1985,5054
1966,5055
1861,5056
1819,5057
1783,5058
1795,5059
1926,5060
1951,5061
1927,5062
1812,5063
1636,5064
1532,5065
1539,5066
1611,5067
1773,5068
1891,5069
1859,5070
1932,5071
1935,5072
1911,5073
1859,5074
1829,5075
1783,5076
1625,5077
1653,5078
1655,5079
1652,5080
1545,5081
1644,5082
1756,5083
1775,5084
1816,5085
1833,5086
1894,5087
1824,5088
1771,5089
1714,5090
1692,5091
1688,5092
1773,5093
1880,5094
1866,5095
1817,5096
1831,5097
1834,5098
1858,5099
1847,5100
1785,5101
1707,5102
1656,5103
1589,5104
1560,5105
1634,5106
1847,5107
2048,5108
2162,5109
2258,5110
2252,5111
2127,5112
1983,5113
1799,5114
1635,5115
1556,5116
1589,5117
1665,5118
1772,5119
1866,5120
1909,5121
1944,5122
1936,5123
1933,5124
1933,5125
1883,5126
1851,5127
1822,5128
1823,5129
1915,5130
1883,5131
1831,5132
1724,5133
1679,5134
1627,5135
1636,5136
1608,5137
1650,5138
1700,5139
1719,5140
1673,5141
1667,5142
1738,5143
1874,5144
1922,5145
1945,5146
2070,5147
2234,5148
2363,5149
2317,5150
2209,5151
1982,5152
1776,5153
1621,5154
1528,5155
1375,5156
1352,5157
1314,5158
1408,5159
1478,5160
1591,5161
1700,5162
1899,5163
1993,5164
2008,5165
1980,5166
1890,5167
1757,5168
1622,5169
1510,5170
1503,5171
1508,5172
1506,5173
1573,5174
1640,5175
1694,5176
1781,5177
1838,5178
1815,5179
1819,5180
1861,5181
1876,5182
2010,5183
2265,5184
2348,5185
2328,5186
2240,5187
2123,5188
1953,5189
1820,5190
1680,5191
1529,5192
1522,5193
1599,5194
1741,5195
1774,5196
1777,5197
1728,5198
1737,5199
1671,5200
1635,5201
1595,5202
1682,5203
1764,5204
1907,5205
2007,5206
2103,5207
2219,5208
2375,5209
2411,5210
2468,5211
2376,5212
2269,5213
2079,5214
1842,5215
1721,5216
1471,5217
1427,5218
1394,5219
1364,5220
1242,5221
1180,5222
1163,5223
1393,5224
1655,5225
1806,5226
1938,5227
2080,5228
2116,5229
2109,5230
2013,5231
1968,5232
1909,5233
1936,5234
1860,5235
1802,5236
1707,5237
1644,5238
1585,5239
1473,5240
1442,5241
1428,5242
1542,5243
1679,5244
1908,5245
2008,5246
2012,5247
2028,5248
1995,5249
1935,5250
1850,5251
1687,5252
1584,5253
1582,5254
1608,5255
1568,5256
1630,5257
1688,5258
1697,5259
1703,5260
1795,5261
1955,5262
1948,5263
1904,5264
1847,5265
1801,5266
1759,5267
1708,5268
1704,5269
1704,5270
1728,5271
1819,5272
1847,5273
1877,5274
1887,5275
1953,5276
2002,5277
2019,5278
2144,5279
2299,5280
2375,5281
2281,5282
2099,5283
1943,5284
1785,5285
1673,5286
1503,5287
1346,5288
1348,5289
1454,5290
1600,5291
1760,5292
1815,5293
1823,5294
1793,5295
1985,5296
2197,5297
2299,5298
2216,5299
2047,5300
1856,5301
1688,5302
1493,5303
1294,5304
1207,5305
1179,5306
1289,5307
1391,5308
1517,5309
1802,5310
1932,5311
1983,5312
1969,5313
2008,5314
1999,5315
2051,5316
2114,5317
2009,5318
1912,5319
1787,5320
1684,5321
1751,5322
1750,5323
1815,5324
1735,5325
1712,5326
1702,5327
1644,5328
1613,5329
1550,5330
1529,5331
1587,5332
1668,5333
1752,5334
1713,5335
1712,5336
1712,5337
1714,5338
1728,5339
1869,5340
2016,5341
2118,5342
2097,5343
2098,5344
2045,5345
2000,5346
1973,5347
1957,5348
1821,5349
1711,5350
1699,5351
1634,5352
1608,5353
1597,5354
1727,5355
1759,5356
1901,5357
1987,5358
2061,5359
2134,5360
2146,5361
2101,5362
2050,5363
1913,5364
1887,5365
1792,5366
1763,5367
1988,5368
1940,5369
1862,5370
1784,5371
1736,5372
1686,5373
1645,5374
1632,5375
1619,5376
1630,5377
1615,5378
1532,5379
1745,5380
1947,5381
2000,5382
1884,5383
1910,5384
1928,5385
1975,5386
2023,5387
1950,5388
1884,5389
1838,5390
1771,5391
1679,5392
1547,5393
1467,5394
1609,5395
1788,5396
1870,5397
1890,5398
1841,5399
1742,5400
1727,5401
1752,5402
1671,5403
1609,5404
1540,5405
1569,5406
1574,5407
1611,5408
1658,5409
1688,5410
1696,5411
1679,5412
1709,5413
1695,5414
1703,5415
1732,5416
1748,5417
1748,5418
1748,5419
1769,5420
1821,5421
1853,5422
1924,5423
1915,5424
1843,5425
1812,5426
1820,5427
1977,5428
2226,5429
2491,5430
2544,5431
2413,5432
2223,5433
2050,5434
1910,5435
1803,5436
1913,5437
1907,5438
1894,5439
1803,5440
1721,5441
1669,5442
1573,5443
1601,5444
1695,5445
1775,5446
1848,5447
1830,5448
1745,5449
1629,5450
1503,5451
1485,5452
1409,5453
1368,5454
1370,5455
1478,5456
1533,5457
1660,5458
1785,5459
1862,5460
1906,5461
1903,5462
1850,5463
1923,5464
2008,5465
2128,5466
2098,5467
2089,5468
2129,5469
2101,5470
1951,5471
1753,5472
1616,5473
1521,5474
1475,5475
1470,5476
1512,5477
1566,5478
1696,5479
1787,5480
1811,5481
1755,5482
1770,5483
1717,5484
1673,5485
1688,5486
1722,5487
1769,5488
1778,5489
1789,5490
1773,5491
1760,5492
1708,5493
1672,5494
1695,5495
1706,5496
1724,5497
1729,5498
1845,5499
1914,5500
2048,5501
2144,5502
2199,5503
2112,5504
2002,5505
1855,5506
1775,5507
1749,5508
1681,5509
1666,5510
1703,5511
1843,5512
1937,5513
1992,5514
2072,5515
2044,5516
1916,5517
1811,5518
1701,5519
1664,5520
1772,5521
1818,5522
1894,5523
1982,5524
1976,5525
1938,5526
1831,5527
1741,5528
1664,5529
1579,5530
1634,5531
1734,5532
1909,5533
2027,5534
2398,5535
2467,5536
2350,5537
2094,5538
1795,5539
1679,5540
1451,5541
1327,5542
1291,5543
1303,5544
1409,5545
1437,5546
1468,5547
1541,5548
1623,5549
1736,5550
1757,5551
1764,5552
1788,5553
1686,5554
1692,5555
1682,5556
1741,5557
1768,5558
1799,5559
1843,5560
1865,5561
1828,5562
1800,5563
1794,5564
1821,5565
1777,5566
1795,5567
1739,5568
1716,5569
1704,5570
1718,5571
1691,5572
1656,5573
1650,5574
1708,5575
1718,5576
1782,5577
1742,5578
1810,5579
2019,5580
2133,5581
2220,5582
2448,5583
2775,5584
2898,5585
2715,5586
2401,5587
2044,5588
1660,5589
1440,5590
1404,5591
1361,5592
1422,5593
1544,5594
1548,5595
1510,5596
1466,5597
1603,5598
1840,5599
2044,5600
2335,5601
2548,5602
2633,5603
2463,5604
2296,5605
2114,5606
2017,5607
1756,5608
1615,5609
1890,5610
1944,5611
1814,5612
1704,5613
1776,5614
1659,5615
1746,5616
2003,5617
2141,5618
2039,5619
1832,5620
1720,5621
1576,5622
1519,5623
1403,5624
1280,5625
1187,5626
1297,5627
1477,5628
1435,5629
1411,5630
1577,5631
1842,5632
1852,5633
1769,5634
1732,5635
1680,5636
1587,5637
1484,5638
1401,5639
1324,5640
1285,5641
1303,5642
1389,5643
1519,5644
1615,5645
1840,5646
1955,5647
1977,5648
1965,5649
1992,5650
1887,5651
1790,5652
1687,5653
1665,5654
1613,5655
1641,5656
1644,5657
1652,5658
1735,5659
1736,5660
1743,5661
1767,5662
1815,5663
1833,5664
1848,5665
1904,5666
1902,5667
1913,5668
2058,5669
2443,5670
2896,5671
3018,5672
2862,5673
2552,5674
2144,5675
1777,5676
1484,5677
1204,5678
1001,5679
985,5680
1024,5681
1248,5682
1386,5683
1526,5684
1736,5685
2308,5686
2630,5687
2664,5688
2595,5689
2377,5690
2032,5691
1659,5692
1327,5693
1078,5694
922,5695
952,5696
1083,5697
1249,5698
1335,5699
1560,5700
1760,5701
1895,5702
1990,5703
2040,5704
1982,5705
1887,5706
1762,5707
1731,5708
1678,5709
1575,5710
1580,5711
1572,5712
1578,5713
1654,5714
1652,5715
1674,5716
1656,5717
1683,5718
1673,5719
1690,5720
1751,5721
1759,5722
1826,5723
1904,5724
1971,5725
2025,5726
2036,5727
2046,5728
2071,5729
2008,5730
1999,5731
1928,5732
1862,5733
1784,5734
1836,5735
1896,5736
1896,5737
1850,5738
1850,5739
1894,5740
1914,5741
1853,5742
1742,5743
1668,5744
1583,5745
1447,5746
1484,5747
1720,5748
1959,5749
2037,5750
1987,5751
1881,5752
1848,5753
1946,5754
1931,5755
1950,5756
1892,5757
1897,5758
1889,5759
1881,5760
1836,5761
1843,5762
1651,5763
1616,5764
1605,5765
1533,5766
1536,5767
1486,5768
1440,5769
1412,5770
1350,5771
1422,5772
1543,5773
1685,5774
1791,5775
1867,5776
1943,5777
2008,5778
2053,5779
2131,5780
2082,5781
1996,5782
1902,5783
1719,5784
1639,5785
1554,5786
1573,5787
1603,5788
1750,5789
1912,5790
2042,5791
2076,5792
1918,5793
1760,5794
1612,5795
1489,5796
1417,5797
1349,5798
1369,5799
1428,5800
1584,5801
1597,5802
1679,5803
1735,5804
1800,5805
1962,5806
2024,5807
2053,5808
2015,5809
1937,5810
1896,5811
1848,5812
1837,5813
1749,5814
1677,5815
1748,5816
1875,5817
1983,5818
1959,5819
1981,5820
2006,5821
2124,5822
2167,5823
2059,5824
1855,5825
1737,5826
1728,5827
1750,5828
1675,5829
1661,5830
1673,5831
1707,5832
1724,5833
1704,5834
1703,5835
1752,5836
1796,5837
1794,5838
1833,5839
1852,5840
1848,5841
1891,5842
1791,5843
1678,5844
1623,5845
1620,5846
1701,5847
1765,5848
1734,5849
1713,5850
1705,5851
1669,5852
1646,5853
1607,5854
1548,5855
1528,5856
1573,5857
1674,5858
1736,5859
1798,5860
1926,5861
1970,5862
1989,5863
2069,5864
2131,5865
2096,5866
1984,5867
1865,5868
1720,5869
1609,5870
1535,5871
1528,5872
1491,5873
1485,5874
1589,5875
1687,5876
1758,5877
1777,5878
1864,5879
1884,5880
1857,5881
1763,5882
1690,5883
1700,5884
1742,5885
1909,5886
2121,5887
2135,5888
2143,5889
2148,5890
2176,5891
2171,5892
1967,5893
1815,5894
1723,5895
1536,5896
1441,5897
1315,5898
1247,5899
1274,5900
1365,5901
1451,5902
1596,5903
1701,5904
1789,5905
1840,5906
1878,5907
1873,5908
1878,5909
1940,5910
1962,5911
1996,5912
2008,5913
1988,5914
1896,5915
1830,5916
1708,5917
1676,5918
1677,5919
1715,5920
1918,5921
1965,5922
1968,5923
1999,5924
1927,5925
1896,5926
1757,5927
1716,5928
1807,5929
1824,5930
1756,5931
1752,5932
1860,5933
1828,5934
1782,5935
1692,5936
1622,5937
1571,5938
1556,5939
1646,5940
1772,5941
1915,5942
2019,5943
2039,5944
2013,5945
1887,5946
1797,5947
1743,5948
1617,5949
1502,5950
1491,5951
1519,5952
1630,5953
1711,5954
1786,5955
1830,5956
1896,5957
1932,5958
1920,5959
2021,5960
2115,5961
2084,5962
1937,5963
1841,5964
1772,5965
1631,5966
1552,5967
1494,5968
1511,5969
1589,5970
1630,5971
1652,5972
1609,5973
1592,5974
1633,5975
1664,5976
1679,5977
1760,5978
1758,5979
1697,5980
1747,5981
1795,5982
1832,5983
1874,5984
2036,5985
2193,5986
2196,5987
2153,5988
2019,5989
1938,5990
1752,5991
1661,5992
1532,5993
1523,5994
1580,5995
1783,5996
1991,5997
2056,5998
2031,5999
2019,6000
2001,6001
2056,6002
2143,6003
2267,6004
2285,6005
2180,6006
2010,6007
1796,6008
1563,6009
1395,6010
1248,6011
1192,6012
1216,6013
1298,6014
1399,6015
1444,6016
1604,6017
1825,6018
2121,6019
2434,6020
2652,6021
2579,6022
2581,6023
2473,6024
2210,6025
1859,6026
1543,6027
1271,6028
1169,6029
1173,6030
1262,6031
1383,6032
1447,6033
1520,6034
1553,6035
1624,6036
1707,6037
1785,6038
1800,6039
1739,6040
1724,6041
1744,6042
1904,6043
2004,6044
2030,6045
1959,6046
2035,6047
1996,6048
2004,6049
2155,6050
2279,6051
2236,6052
2149,6053
2096,6054
1920,6055
1664,6056
1560,6057
1452,6058
1307,6059
1304,6060
1336,6061
1489,6062
1513,6063
1549,6064
1741,6065
1861,6066
1906,6067
2115,6068
2284,6069
2456,6070
2641,6071
2534,6072
2300,6073
2060,6074
1786,6075
1592,6076
1379,6077
1357,6078
1338,6079
1425,6080
1705,6081
1934,6082
1955,6083
1947,6084
1884,6085
2062,6086
2322,6087
2270,6088
2131,6089
1895,6090
1680,6091
1404,6092
1258,6093
1196,6094
1166,6095
1206,6096
1290,6097
1473,6098
1614,6099
1646,6100
1701,6101
2018,6102
2508,6103
2864,6104
2998,6105
2937,6106
2580,6107
2192,6108
1782,6109
1436,6110
1098,6111
1041,6112
1053,6113
1027,6114
1162,6115
1284,6116
1408,6117
1445,6118
1499,6119
1576,6120
1581,6121
1609,6122
1680,6123
1764,6124
1766,6125
1781,6126
1762,6127
1768,6128
1770,6129
1767,6130
1780,6131
1740,6132
1768,6133
1744,6134
1787,6135
1775,6136
1784,6137
1822,6138
1824,6139
1839,6140
1852,6141
1860,6142
1864,6143
1888,6144
1860,6145
1848,6146
1856,6147
1806,6148
1789,6149
1759,6150
1794,6151
1984,6152
2436,6153
2683,6154
2786,6155
2791,6156
2608,6157
2349,6158
2069,6159
1830,6160
1535,6161
1232,6162
1175,6163
1200,6164
1236,6165
1269,6166
1268,6167
1317,6168
1414,6169
1511,6170
1589,6171
1655,6172
1719,6173
1789,6174
1789,6175
1829,6176
1877,6177
1912,6178
1926,6179
1847,6180
1847,6181
1993,6182
2183,6183
2263,6184
2319,6185
2272,6186
2190,6187
2055,6188
1774,6189
1552,6190
1379,6191
1308,6192
1300,6193
1314,6194
1441,6195
1551,6196
1594,6197
1589,6198
1643,6199
1696,6200
1708,6201
1728,6202
1773,6203
1747,6204
1799,6205
1866,6206
1968,6207
1968,6208
2038,6209
1971,6210
1896,6211
1873,6212
1803,6213
1782,6214
1729,6215
1689,6216
1704,6217
1728,6218
1708,6219
1677,6220
1672,6221
1627,6222
1669,6223
1637,6224
1666,6225
1711,6226
1802,6227
1813,6228
1841,6229
1906,6230
2079,6231
2226,6232
2356,6233
2392,6234
2327,6235
2139,6236
1968,6237
1763,6238
1564,6239
1496,6240
1457,6241
1406,6242
1487,6243
1567,6244
1762,6245
1915,6246
2058,6247
2080,6248
2130,6249
2053,6250
1919,6251
1800,6252
1727,6253
1620,6254
1560,6255
1495,6256
1474,6257
1581,6258
1758,6259
1893,6260
2095,6261
2167,6262
2314,6263
2298,6264
2165,6265
2088,6266
1981,6267
1784,6268
1640,6269
1504,6270
1492,6271
1568,6272
1594,6273
1575,6274
1544,6275
1606,6276
1691,6277
1860,6278
1969,6279
1950,6280
1917,6281
1838,6282
1745,6283
1754,6284
1821,6285
1840,6286
1903,6287
1910,6288
1956,6289
1922,6290
1895,6291
1732,6292
1630,6293
1522,6294
1491,6295
1531,6296
1490,6297
1544,6298
1576,6299
1620,6300
1697,6301
1685,6302
1751,6303
1793,6304
1844,6305
1902,6306
1997,6307
2053,6308
2021,6309
1950,6310
1903,6311
1938,6312
1936,6313
1930,6314
1948,6315
1917,6316
1883,6317
1770,6318
1795,6319
1817,6320
1884,6321
1990,6322
2153,6323
2239,6324
2207,6325
2103,6326
1899,6327
1836,6328
1755,6329
1750,6330
1695,6331
1717,6332
1720,6333
1667,6334
1673,6335
1741,6336
1705,6337
1685,6338
1636,6339
1684,6340
1815,6341
2047,6342
2095,6343
2057,6344
1932,6345
1841,6346
1718,6347
1586,6348
1595,6349
1673,6350
1687,6351
1803,6352
1941,6353
2117,6354
2189,6355
2175,6356
2145,6357
2054,6358
1956,6359
1860,6360
1712,6361
1585,6362
1528,6363
1483,6364
1410,6365
1439,6366
1522,6367
1585,6368
1688,6369
1691,6370
1727,6371
1783,6372
1848,6373
1838,6374
1882,6375
1836,6376
1799,6377
1764,6378
1775,6379
1799,6380
1771,6381
1875,6382
2032,6383
2100,6384
2178,6385
2190,6386
2074,6387
2000,6388
1883,6389
1825,6390
1750,6391
1737,6392
1879,6393
1862,6394
1834,6395
1793,6396
1765,6397
1707,6398
1619,6399
1709,6400
1728,6401
1785,6402
1832,6403
1855,6404
1890,6405
1839,6406
1878,6407
1976,6408
2089,6409
2167,6410
2304,6411
2344,6412
2287,6413
2081,6414
1986,6415
1971,6416
1872,6417
1677,6418
1535,6419
1503,6420
1576,6421
1814,6422
1847,6423
1854,6424
1808,6425
1764,6426
1708,6427
1714,6428
1816,6429
1848,6430
1883,6431
1926,6432
1986,6433
2037,6434
1962,6435
1852,6436
1767,6437
1696,6438
1670,6439
1720,6440
1738,6441
1819,6442
1915,6443
1902,6444
1949,6445
1830,6446
1792,6447
1726,6448
1626,6449
1519,6450
1583,6451
1647,6452
1668,6453
1728,6454
1731,6455
1841,6456
1931,6457
2025,6458
2085,6459
2051,6460
1969,6461
1911,6462
1892,6463
1842,6464
1882,6465
1923,6466
1868,6467
1845,6468
1870,6469
1879,6470
1927,6471
1938,6472
1831,6473
1752,6474
1723,6475
1738,6476
1766,6477
1831,6478
1878,6479
1971,6480
2119,6481
2216,6482
2237,6483
2152,6484
1988,6485
1861,6486
1723,6487
1546,6488
1383,6489
1396,6490
1482,6491
1594,6492
1604,6493
1615,6494
1669,6495
1729,6496
1699,6497
1788,6498
1786,6499
1908,6500
1953,6501
2068,6502
2149,6503
2109,6504
2032,6505
1978,6506
1867,6507
1796,6508
1760,6509
1752,6510
1742,6511
1742,6512
1723,6513
1846,6514
1830,6515
1840,6516
1858,6517
1876,6518
1959,6519
1927,6520
1924,6521
1888,6522
1988,6523
1981,6524
1864,6525
1881,6526
1793,6527
1766,6528
1784,6529
1855,6530
1845,6531
1818,6532
1763,6533
1758,6534
1762,6535
1826,6536
1956,6537
2023,6538
2132,6539
2128,6540
2082,6541
2101,6542
2087,6543
2047,6544
1947,6545
1853,6546
1688,6547
1538,6548
1504,6549
1521,6550
1668,6551
1747,6552
1897,6553
1929,6554
1883,6555
1812,6556
1758,6557
1726,6558
1645,6559
1628,6560
1709,6561
1868,6562
1972,6563
2039,6564
2075,6565
2017,6566
1919,6567
1824,6568
1768,6569
1671,6570
1600,6571
1587,6572
1784,6573
1995,6574
2072,6575
2087,6576
2052,6577
2021,6578
2151,6579
2248,6580
2205,6581
2115,6582
1961,6583
1940,6584
1849,6585
1772,6586
1694,6587
1677,6588
1675,6589
1655,6590
1688,6591
1725,6592
1636,6593
1545,6594
1488,6595
1515,6596
1554,6597
1716,6598
1834,6599
1876,6600
1895,6601
1907,6602
2008,6603
2287,6604
2518,6605
2596,6606
2495,6607
2351,6608
2134,6609
1967,6610
1767,6611
1690,6612
1607,6613
1608,6614
1604,6615
1601,6616
1632,6617
1662,6618
1704,6619
1703,6620
1698,6621
1650,6622
1674,6623
1831,6624
2225,6625
2565,6626
2596,6627
2747,6628
2776,6629
2574,6630
2467,6631
2384,6632
2291,6633
2196,6634
2017,6635
1781,6636
1551,6637
1566,6638
1467,6639
1418,6640
1688,6641
2042,6642
2055,6643
1930,6644
1950,6645
1997,6646
1896,6647
1972,6648
1949,6649
1848,6650
1776,6651
1741,6652
1954,6653
2148,6654
2183,6655
1966,6656
1846,6657
1882,6658
1841,6659
1695,6660
1541,6661
1457,6662
1395,6663
1311,6664
1215,6665
1290,6666
1601,6667
1797,6668
1783,6669
1735,6670
1740,6671
1791,6672
1815,6673
1811,6674
1908,6675
1852,6676
1759,6677
1825,6678
2216,6679
2453,6680
2394,6681
2328,6682
2161,6683
2011,6684
1831,6685
1771,6686
1687,6687
1725,6688
1742,6689
1663,6690
1567,6691
1509,6692
1464,6693
1451,6694
1489,6695
1524,6696
1570,6697
1630,6698
1827,6699
1900,6700
1987,6701
1975,6702
2015,6703
2040,6704
2049,6705
2020,6706
1908,6707
1816,6708
1811,6709
2018,6710
2052,6711
1953,6712
1837,6713
1825,6714
1797,6715
1789,6716
1789,6717
1875,6718
1936,6719
1918,6720
1914,6721
1925,6722
1859,6723
1991,6724
2202,6725
2382,6726
2271,6727
2125,6728
2013,6729
1794,6730
1642,6731
1562,6732
1510,6733
1400,6734
1301,6735
1291,6736
1375,6737
1506,6738
1661,6739
1756,6740
1818,6741
1920,6742
2077,6743
2118,6744
2138,6745
2092,6746
2008,6747
1889,6748
1873,6749
1758,6750
1693,6751
1780,6752
1959,6753
2063,6754
2077,6755
1985,6756
1916,6757
1907,6758
1920,6759
1943,6760
1906,6761
1903,6762
1894,6763
1763,6764
1842,6765
1900,6766
1932,6767
1899,6768
1880,6769
1847,6770
1803,6771
1788,6772
1751,6773
1767,6774
1743,6775
1826,6776
1838,6777
1825,6778
1843,6779
1771,6780
1743,6781
1724,6782
1806,6783
1948,6784
2039,6785
2071,6786
1997,6787
1887,6788
1819,6789
1756,6790
1745,6791
1695,6792
1722,6793
1787,6794
1865,6795
1908,6796
1871,6797
1827,6798
1747,6799
1732,6800
1850,6801
1977,6802
2065,6803
2119,6804
2125,6805
2048,6806
2073,6807
2050,6808
2063,6809
1978,6810
1872,6811
1771,6812
1684,6813
1656,6814
1532,6815
1493,6816
1572,6817
1760,6818
1951,6819
1951,6820
1940,6821
1886,6822
1766,6823
1726,6824
1714,6825
1677,6826
1709,6827
1666,6828
1740,6829
1833,6830
1934,6831
2011,6832
2095,6833
2312,6834
2371,6835
2309,6836
2198,6837
2070,6838
1953,6839
1890,6840
1777,6841
1698,6842
1616,6843
1620,6844
1712,6845
1823,6846
1860,6847
1823,6848
1852,6849
1859,6850
1796,6851
1848,6852
1956,6853
2012,6854
2001,6855
1932,6856
1912,6857
1771,6858
1697,6859
1846,6860
1987,6861
2116,6862
2162,6863
2120,6864
1924,6865
1800,6866
1728,6867
1672,6868
1680,6869
1763,6870
1880,6871
1970,6872
2099,6873
2188,6874
2091,6875
1955,6876
1765,6877
1631,6878
1470,6879
1424,6880
1496,6881
1528,6882
1603,6883
1625,6884
1685,6885
1799,6886
1924,6887
1998,6888
2009,6889
1969,6890
1936,6891
1963,6892
1960,6893
1916,6894
1921,6895
2045,6896
2128,6897
2198,6898
2202,6899
2123,6900
2114,6901
2077,6902
2002,6903
1882,6904
1764,6905
1588,6906
1592,6907
1570,6908
1574,6909
1580,6910
1604,6911
1782,6912
2160,6913
2342,6914
2337,6915
2244,6916
2158,6917
2068,6918
2030,6919
2295,6920
2474,6921
2503,6922
2480,6923
2327,6924
2220,6925
1907,6926
1650,6927
1567,6928
1309,6929
1405,6930
1470,6931
1467,6932
1433,6933
1475,6934
1544,6935
1737,6936
1832,6937
1854,6938
1834,6939
1802,6940
1794,6941
1869,6942
1963,6943
1993,6944
2050,6945
2128,6946
2190,6947
2472,6948
2772,6949
2816,6950
2665,6951
2516,6952
2494,6953
2311,6954
1935,6955
1573,6956
1203,6957
1198,6958
1216,6959
1219,6960
1204,6961
1233,6962
1212,6963
1203,6964
1227,6965
1229,6966
1228,6967
1224,6968
1664,6969
1750,6970
1733,6971
1808,6972
1798,6973
1857,6974
2092,6975
2522,6976
2905,6977
3027,6978
3073,6979
2952,6980
2580,6981
2228,6982
1829,6983
1520,6984
1272,6985
1239,6986
1223,6987
1234,6988
1212,6989
1371,6990
1570,6991
1924,6992
2423,6993
2726,6994
2686,6995
2580,6996
2545,6997
2341,6998
1960,6999
1601,7000
1367,7001
1229,7002
1230,7003
1231,7004
1233,7005
1209,7006
1231,7007
1243,7008
1895,7009
2036,7010
2003,7011
1996,7012
2288,7013
2390,7014
2412,7015
2342,7016
2140,7017
1978,7018
1733,7019
1491,7020
1306,7021
1249,7022
1440,7023
1760,7024
1942,7025
2013,7026
2016,7027
1982,7028
1862,7029
1769,7030
1677,7031
1605,7032
1615,7033
1682,7034
1818,7035
1894,7036
1936,7037
1932,7038
1891,7039
2010,7040
2068,7041
2012,7042
2006,7043
1943,7044
1906,7045
1790,7046
1723,7047
1672,7048
1583,7049
1560,7050
1649,7051
1772,7052
2059,7053
2301,7054
2330,7055
2265,7056
2239,7057
2164,7058
2024,7059
1908,7060
1805,7061
1725,7062
1807,7063
1823,7064
1836,7065
1784,7066
1752,7067
1698,7068
1609,7069
1577,7070
1543,7071
1571,7072
1668,7073
1988,7074
2241,7075
2285,7076
2270,7077
2126,7078
1955,7079
1776,7080
1632,7081
1517,7082
1453,7083
1496,7084
1569,7085
1683,7086
1786,7087
1966,7088
1998,7089
2022,7090
1916,7091
1946,7092
1943,7093
2030,7094
1997,7095
2003,7096
2077,7097
2131,7098
2186,7099
2256,7100
2243,7101
2094,7102
1980,7103
1861,7104
1823,7105
1704,7106
1488,7107
1464,7108
1456,7109
1544,7110
1690,7111
1857,7112
1902,7113
1907,7114
1967,7115
2053,7116
2108,7117
2171,7118
2122,7119
2087,7120
1966,7121
1986,7122
1931,7123
1777,7124
1644,7125
1536,7126
1476,7127
1561,7128
1647,7129
1666,7130
1827,7131
1979,7132
2052,7133
2232,7134
2272,7135
2214,7136
2074,7137
1941,7138
1790,7139
1655,7140
1523,7141
1479,7142
1529,7143
1575,7144
1617,7145
1742,7146
1791,7147
1923,7148
1990,7149
2089,7150
2121,7151
2100,7152
2049,7153
1972,7154
1901,7155
1817,7156
1730,7157
1723,7158
1778,7159
1836,7160
2055,7161
2181,7162
2207,7163
2166,7164
2143,7165
2093,7166
2084,7167
2013,7168
1962,7169
1872,7170
1712,7171
1662,7172
1656,7173
1587,7174
1525,7175
1528,7176
1600,7177
1629,7178
1733,7179
1859,7180
2047,7181
2141,7182
2211,7183
2307,7184
2315,7185
2324,7186
2264,7187
2146,7188
2024,7189
1931,7190
1763,7191
1630,7192
1531,7193
1451,7194
1527,7195
1636,7196
1771,7197
1937,7198
2103,7199
2104,7200
2041,7201
1978,7202
1892,7203
1908,7204
1915,7205
1900,7206
1825,7207
1826,7208
1917,7209
2103,7210
2085,7211
1992,7212
1872,7213
1762,7214
1623,7215
1492,7216
1498,7217
1595,7218
1857,7219
2138,7220
2287,7221
2517,7222
2601,7223
2491,7224
2264,7225
2027,7226
1827,7227
1654,7228
1461,7229
1384,7230
1310,7231
1327,7232
1418,7233
1531,7234
1612,7235
1669,7236
1713,7237
1718,7238
1727,7239
1756,7240
1780,7241
1784,7242
1806,7243
1871,7244
1847,7245
1922,7246
1916,7247
1912,7248
1950,7249
2057,7250
2149,7251
2248,7252
2397,7253
2370,7254
2272,7255
2160,7256
1962,7257
1930,7258
1824,7259
1727,7260
1660,7261
1630,7262
1579,7263
1616,7264
1830,7265
1960,7266
2025,7267
2026,7268
2008,7269
1998,7270
2057,7271
2263,7272
2336,7273
2190,7274
2031,7275
1854,7276
1674,7277
1579,7278
1551,7279
1480,7280
1541,7281
1677,7282
1775,7283
1809,7284
1878,7285
1907,7286
1869,7287
1905,7288
1873,7289
1840,7290
1817,7291
1802,7292
1747,7293
1730,7294
1795,7295
1920,7296
1994,7297
2020,7298
1966,7299
1913,7300
1858,7301
1791,7302
1878,7303
1851,7304
1857,7305
1867,7306
1929,7307
2044,7308
2199,7309
2237,7310
2211,7311
2171,7312
2084,7313
1882,7314
1852,7315
1790,7316
1755,7317
1789,7318
1807,7319
1791,7320
1823,7321
1830,7322
1774,7323
1714,7324
1683,7325
1712,7326
1696,7327
1764,7328
1798,7329
1766,7330
1915,7331
2104,7332
2212,7333
2227,7334
2193,7335
2176,7336
2114,7337
2050,7338
1912,7339
1825,7340
1736,7341
1629,7342
1563,7343
1587,7344
1673,7345
1773,7346
1835,7347
1895,7348
1934,7349
1966,7350
1952,7351
2002,7352
2084,7353
2071,7354
1939,7355
1932,7356
1881,7357
1815,7358
1816,7359
1728,7360
1760,7361
1851,7362
1995,7363
2015,7364
1986,7365
2000,7366
1934,7367
1821,7368
1687,7369
1635,7370
1641,7371
1618,7372
1618,7373
1619,7374
1679,7375
1742,7376
1785,7377
1829,7378
1862,7379
1904,7380
1863,7381
1918,7382
1977,7383
1987,7384
1973,7385
1935,7386
1980,7387
2047,7388
2075,7389
2120,7390
2092,7391
2011,7392
1961,7393
1872,7394
1804,7395
1735,7396
1726,7397
1820,7398
1965,7399
2202,7400
2271,7401
2303,7402
2271,7403
2119,7404
1976,7405
1822,7406
1739,7407
1680,7408
1638,7409
1651,7410
1681,7411
1727,7412
1856,7413
1951,7414
1943,7415
1976,7416
1899,7417
1851,7418
1777,7419
1704,7420
1716,7421
1801,7422
2012,7423
2136,7424
2445,7425
2482,7426
2440,7427
2239,7428
2116,7429
1931,7430
1809,7431
1741,7432
1745,7433
1740,7434
1740,7435
1756,7436
1688,7437
1693,7438
1740,7439
1774,7440
1847,7441
1829,7442
1856,7443
1872,7444
1877,7445
1873,7446
1868,7447
1871,7448
1791,7449
1730,7450
1780,7451
1839,7452
1854,7453
1849,7454
1880,7455
1915,7456
1922,7457
1894,7458
1883,7459
1833,7460
1824,7461
1791,7462
1867,7463
1915,7464
1887,7465
1902,7466
1922,7467
2001,7468
2083,7469
2055,7470
2052,7471
2061,7472
2056,7473
1958,7474
1908,7475
1916,7476
1935,7477
1916,7478
1887,7479
1957,7480
2201,7481
2475,7482
2582,7483
2590,7484
2382,7485
2193,7486
1920,7487
1695,7488
1559,7489
1404,7490
1428,7491
1536,7492
1670,7493
1738,7494
1790,7495
1830,7496
1878,7497
2016,7498
2127,7499
2183,7500
2216,7501
2192,7502
2160,7503
2032,7504
1936,7505
1908,7506
1885,7507
1952,7508
1965,7509
1919,7510
1887,7511
1849,7512
1865,7513
1838,7514
1840,7515
1721,7516
1680,7517
1735,7518
1881,7519
1915,7520
1920,7521
1971,7522
2043,7523
2049,7524
2092,7525
2129,7526
2127,7527
2093,7528
2132,7529
2132,7530
2166,7531
2144,7532
2001,7533
1966,7534
1840,7535
1720,7536
1630,7537
1599,7538
1634,7539
1645,7540
1674,7541
1730,7542
1725,7543
1751,7544
1808,7545
1888,7546
1977,7547
2037,7548
1978,7549
1925,7550
1890,7551
1830,7552
1787,7553
1849,7554
1834,7555
1846,7556
1853,7557
1888,7558
1991,7559
2131,7560
2151,7561
2162,7562
2054,7563
2028,7564
2014,7565
2008,7566
2027,7567
2000,7568
1960,7569
1915,7570
1889,7571
1912,7572
2028,7573
2158,7574
2363,7575
2440,7576
2403,7577
2346,7578
2240,7579
2031,7580
1822,7581
1695,7582
1583,7583
1663,7584
1946,7585
2161,7586
2266,7587
2263,7588
2259,7589
2131,7590
1974,7591
1826,7592
1682,7593
1590,7594
1561,7595
1571,7596
1594,7597
1728,7598
1915,7599
2128,7600
2190,7601
2206,7602
2251,7603
2225,7604
2151,7605
2085,7606
2047,7607
1860,7608
1687,7609
1576,7610
1564,7611
1543,7612
1575,7613
1592,7614
1690,7615
1764,7616
1778,7617
1868,7618
1867,7619
1891,7620
1919,7621
1975,7622
2128,7623
2275,7624
2316,7625
2216,7626
2095,7627
1967,7628
1854,7629
1778,7630
1811,7631
1833,7632
1909,7633
2064,7634
2171,7635
2171,7636
2124,7637
2047,7638
1969,7639
1931,7640
1907,7641
1843,7642
1834,7643
1800,7644
1775,7645
1782,7646
1789,7647
1773,7648
1737,7649
1820,7650
1826,7651
1840,7652
1885,7653
1925,7654
1939,7655
1949,7656
1968,7657
2052,7658
2096,7659
2086,7660
2130,7661
2144,7662
2104,7663
2024,7664
2016,7665
2029,7666
1920,7667
1983,7668
2018,7669
2008,7670
1992,7671
1976,7672
2036,7673
2101,7674
2258,7675
2285,7676
2207,7677
2084,7678
1969,7679
1895,7680
1801,7681
1793,7682
1905,7683
2149,7684
2250,7685
2322,7686
2354,7687
2239,7688
2041,7689
1872,7690
1770,7691
1769,7692
1674,7693
1573,7694
1533,7695
1558,7696
1570,7697
1583,7698
1670,7699
1803,7700
1863,7701
1930,7702
1906,7703
1915,7704
1923,7705
1864,7706
1821,7707
1851,7708
1844,7709
1865,7710
1878,7711
1926,7712
1975,7713
1980,7714
2001,7715
2051,7716
2050,7717
2043,7718
2032,7719
1973,7720
1983,7721
1956,7722
1977,7723
2054,7724
2071,7725
2096,7726
2035,7727
2003,7728
1974,7729
1940,7730
1827,7731
1797,7732
1791,7733
1875,7734
1884,7735
1876,7736
1831,7737
1832,7738
1822,7739
1844,7740
1932,7741
1983,7742
2132,7743
2355,7744
2593,7745
2575,7746
2384,7747
2181,7748
1989,7749
1854,7750
1728,7751
1641,7752
1736,7753
1976,7754
2201,7755
2272,7756
2306,7757
2321,7758
2252,7759
2035,7760
1860,7761
1680,7762
1579,7763
1523,7764
1544,7765
1672,7766
1847,7767
2075,7768
2113,7769
2066,7770
2000,7771
1928,7772
1865,7773
1866,7774
1792,7775
1711,7776
1747,7777
1800,7778
1835,7779
1904,7780
1952,7781
1982,7782
1966,7783
1950,7784
1991,7785
2051,7786
2053,7787
2048,7788
2020,7789
1965,7790
1911,7791
1833,7792
1767,7793
1749,7794
1778,7795
1885,7796
1910,7797
1971,7798
1994,7799
1981,7800
1945,7801
1968,7802
1957,7803
1971,7804
1936,7805
1944,7806
1881,7807
1905,7808
1914,7809
1936,7810
1943,7811
1967,7812
2003,7813
2079,7814
2167,7815
2207,7816
2312,7817
2299,7818
2238,7819
2248,7820
2298,7821
2249,7822
2175,7823
2063,7824
2021,7825
1969,7826
1889,7827
1754,7828
1674,7829
1608,7830
1619,7831
1649,7832
1772,7833
1933,7834
2031,7835
2070,7836
2069,7837
2053,7838
2008,7839
1968,7840
1949,7841
1988,7842
2092,7843
2135,7844
2192,7845
2164,7846
2049,7847
2007,7848
1952,7849
1912,7850
1875,7851
1953,7852
1923,7853
1881,7854
1916,7855
1915,7856
1959,7857
1976,7858
1987,7859
1989,7860
1963,7861
1984,7862
1879,7863
1883,7864
1816,7865
1767,7866
1760,7867
1745,7868
1785,7869
1778,7870
1820,7871
1848,7872
1865,7873
1911,7874
1879,7875
1895,7876
1915,7877
1944,7878
1952,7879
1975,7880
1978,7881
2003,7882
2029,7883
1981,7884
2035,7885
1997,7886
2037,7887
1988,7888
2025,7889
2007,7890
2043,7891
2023,7892
1994,7893
1972,7894
1921,7895
1888,7896
1874,7897
1801,7898
1879,7899
1892,7900
1918,7901
1981,7902
2141,7903
2475,7904
2825,7905
2884,7906
2840,7907
2621,7908
2293,7909
2047,7910
1774,7911
1650,7912
1474,7913
1498,7914
1562,7915
1658,7916
1733,7917
1788,7918
1868,7919
1884,7920
1874,7921
1894,7922
1943,7923
2046,7924
2016,7925
1960,7926
2017,7927
2060,7928
2135,7929
2280,7930
2310,7931
2281,7932
2209,7933
2075,7934
1919,7935
1807,7936
1751,7937
1914,7938
2084,7939
2152,7940
2131,7941
2071,7942
1991,7943
1897,7944
1798,7945
1725,7946
1727,7947
1687,7948
1711,7949
1791,7950
1802,7951
1816,7952
1875,7953
1882,7954
1932,7955
1960,7956
1960,7957
1988,7958
1999,7959
2060,7960
2028,7961
2023,7962
1993,7963
2005,7964
2016,7965
2016,7966
2037,7967
2007,7968
2003,7969
1968,7970
2005,7971
2024,7972
2026,7973
2044,7974
2030,7975
2035,7976
2005,7977
2049,7978
2108,7979
2133,7980
2128,7981
2060,7982
2042,7983
1978,7984
1898,7985
1794,7986
1955,7987
2119,7988
2114,7989
2004,7990
1922,7991
1918,7992
1986,7993
2055,7994
2126,7995
2096,7996
2064,7997
2031,7998
1976,7999
1931,8000
1878,8001
1920,8002
1869,8003
1856,8004
1848,8005
1815,8006
1839,8007
1907,8008
1947,8009
1985,8010
2048,8011
2093,8012
2078,8013
2122,8014
2176,8015
2167,8016
2146,8017
2118,8018
2128,8019
2197,8020
2150,8021
2099,8022
2063,8023
2059,8024
2119,8025
2196,8026
2190,8027
2121,8028
1961,8029
1852,8030
1832,8031
1827,8032
1820,8033
1779,8034
1751,8035
1727,8036
1769,8037
1855,8038
1962,8039
2087,8040
2166,8041
2206,8042
2142,8043
2064,8044
1943,8045
1951,8046
1848,8047
1750,8048
1697,8049
1730,8050
1788,8051
1839,8052
1819,8053
1885,8054
1920,8055
2008,8056
2041,8057
2087,8058
2051,8059
2053,8060
2008,8061
2056,8062
2084,8063
2157,8064
2247,8065
2351,8066
2403,8067
2348,8068
2292,8069
2168,8070
2030,8071
1902,8072
1801,8073
1645,8074
1704,8075
1771,8076
1815,8077
1997,8078
2215,8079
2416,8080
2442,8081
2365,8082
2228,8083
2080,8084
1932,8085
1857,8086
1792,8087
1760,8088
1756,8089
1788,8090
1827,8091
1859,8092
1973,8093
2024,8094
2068,8095
2034,8096
2031,8097
1986,8098
2009,8099
2114,8100
2284,8101
2371,8102
2431,8103
2329,8104
2197,8105
2057,8106
1928,8107
1861,8108
1767,8109
1713,8110
1765,8111
1867,8112
1912,8113
1878,8114
1884,8115
1875,8116
1871,8117
1963,8118
2091,8119
2131,8120
2135,8121
2096,8122
2008,8123
1947,8124
1890,8125
1836,8126
1772,8127
1792,8128
1800,8129
1783,8130
1800,8131
1848,8132
1908,8133
1890,8134
1949,8135
1940,8136
2007,8137
2217,8138
2432,8139
2544,8140
2524,8141
2470,8142
2381,8143
2220,8144
2132,8145
1972,8146
1792,8147
1731,8148
1698,8149
1725,8150
1754,8151
1804,8152
1809,8153
1824,8154
1904,8155
1972,8156
1984,8157
2109,8158
2212,8159
2304,8160
2314,8161
2349,8162
2248,8163
2161,8164
2023,8165
1928,8166
1844,8167
1853,8168
1861,8169
1988,8170
2050,8171
2051,8172
2045,8173
2039,8174
1991,8175
1943,8176
1845,8177
1862,8178
1964,8179
2022,8180
2046,8181
2048,8182
2024,8183
1991,8184
1956,8185
1923,8186
1880,8187
1893,8188
1863,8189
1860,8190
1839,8191
1835,8192
1862,8193
1863,8194
1880,8195
1912,8196
1952,8197
1974,8198
2016,8199
2038,8200
2068,8201
2069,8202
2039,8203
2033,8204
2057,8205
2010,8206
2105,8207
2186,8208
2209,8209
2118,8210
2061,8211
1959,8212
1914,8213
1795,8214
1815,8215
1874,8216
1838,8217
1932,8218
1942,8219
1962,8220
1998,8221
2124,8222
2248,8223
2392,8224
2353,8225
2298,8226
2206,8227
2134,8228
2090,8229
2045,8230
2005,8231
1942,8232
1824,8233
1848,8234
1835,8235
1893,8236
1917,8237
2008,8238
2041,8239
2048,8240
2091,8241
2097,8242
2082,8243
1994,8244
2031,8245
2089,8246
2292,8247
2358,8248
2260,8249
2158,8250
2092,8251
2000,8252
1879,8253
1759,8254
1756,8255
1793,8256
1815,8257
1839,8258
1822,8259
1930,8260
2009,8261
2035,8262
2049,8263
1989,8264
1930,8265
1905,8266
1911,8267
1882,8268
1849,8269
1807,8270
1872,8271
1895,8272
1938,8273
2021,8274
2006,8275
2003,8276
2023,8277
1953,8278
1960,8279
1985,8280
1990,8281
1965,8282
1997,8283
2062,8284
2063,8285
2044,8286
2058,8287
2045,8288
1977,8289
1995,8290
1965,8291
1975,8292
2000,8293
2005,8294
2008,8295
2004,8296
2021,8297
2021,8298
2022,8299
2030,8300
2043,8301
2050,8302
2075,8303
2354,8304
2621,8305
2628,8306
2549,8307
2437,8308
2209,8309
1974,8310
1796,8311
1692,8312
1731,8313
1790,8314
1883,8315
1906,8316
1951,8317
1935,8318
1972,8319
2024,8320
1976,8321
1951,8322
1902,8323
1916,8324
1867,8325
1810,8326
1872,8327
1882,8328
1840,8329
1878,8330
1886,8331
1934,8332
1889,8333
1889,8334
1943,8335
1975,8336
1967,8337
1977,8338
2051,8339
2127,8340
2272,8341
2360,8342
2335,8343
2280,8344
2179,8345
2103,8346
2044,8347
1909,8348
1894,8349
1867,8350
1824,8351
1942,8352
2012,8353
2043,8354
2120,8355
2167,8356
2251,8357
2229,8358
2200,8359
2161,8360
2031,8361
2005,8362
1934,8363
1764,8364
1702,8365
1776,8366
1822,8367
1899,8368
1887,8369
1884,8370
1921,8371
1892,8372
1905,8373
1924,8374
1920,8375
1942,8376
1980,8377
1995,8378
2028,8379
2007,8380
2017,8381
1998,8382
2046,8383
2067,8384
2077,8385
2005,8386
2051,8387
2039,8388
2061,8389
2055,8390
2108,8391
2103,8392
2069,8393
2099,8394
2091,8395
2184,8396
2283,8397
2349,8398
2345,8399
2292,8400
2207,8401
2021,8402
1866,8403
1808,8404
1935,8405
2030,8406
2031,8407
1975,8408
1948,8409
1841,8410
1760,8411
1765,8412
1759,8413
1746,8414
1803,8415
1873,8416
1931,8417
1947,8418
2077,8419
2113,8420
2175,8421
2269,8422
2390,8423
2459,8424
2392,8425
2245,8426
2142,8427
2027,8428
1905,8429
1828,8430
1701,8431
1709,8432
1791,8433
1987,8434
2007,8435
2004,8436
1925,8437
1910,8438
1911,8439
1872,8440
1915,8441
1938,8442
1988,8443
2197,8444
2335,8445
2355,8446
2290,8447
2150,8448
2017,8449
1902,8450
1854,8451
1851,8452
1811,8453
1769,8454
1871,8455
1934,8456
2023,8457
2142,8458
2163,8459
2130,8460
2123,8461
2087,8462
1987,8463
1945,8464
1885,8465
1920,8466
1915,8467
1862,8468
1873,8469
1869,8470
1836,8471
1889,8472
1891,8473
1953,8474
1939,8475
1931,8476
1949,8477
1943,8478
1937,8479
1961,8480
2022,8481
2035,8482
2068,8483
2109,8484
2112,8485
2040,8486
2032,8487
2107,8488
2135,8489
2156,8490
2200,8491
2166,8492
2051,8493
2038,8494
2007,8495
1945,8496
2037,8497
2084,8498
2108,8499
2203,8500
2269,8501
2348,8502
2428,8503
2395,8504
2252,8505
2084,8506
1963,8507
1943,8508
1923,8509
1895,8510
1860,8511
1858,8512
1956,8513
1995,8514
1972,8515
1978,8516
1974,8517
1899,8518
1855,8519
1817,8520
1754,8521
1734,8522
1807,8523
1857,8524
1931,8525
2122,8526
2303,8527
2272,8528
2115,8529
2008,8530
1923,8531
1850,8532
1760,8533
1782,8534
1732,8535
1805,8536
1860,8537
1912,8538
1938,8539
1993,8540
2024,8541
2086,8542
2166,8543
2207,8544
2232,8545
2151,8546
2067,8547
2001,8548
1968,8549
1914,8550
1830,8551
1846,8552
1880,8553
1899,8554
1914,8555
1946,8556
1979,8557
1912,8558
1968,8559
1927,8560
1945,8561
1998,8562
2199,8563
2354,8564
2448,8565
2400,8566
2323,8567
2185,8568
2056,8569
1872,8570
1760,8571
1727,8572
1939,8573
2162,8574
2164,8575
2185,8576
2104,8577
1995,8578
1915,8579
1812,8580
1819,8581
1923,8582
2208,8583
2405,8584
2478,8585
2447,8586
2300,8587
2109,8588
1917,8589
1751,8590
1561,8591
1507,8592
1621,8593
1746,8594
1850,8595
1903,8596
2048,8597
2187,8598
2215,8599
2185,8600
2224,8601
2165,8602
2165,8603
2088,8604
2008,8605
1852,8606
1755,8607
1699,8608
1689,8609
1707,8610
1677,8611
1761,8612
1848,8613
1875,8614
1942,8615
1939,8616
1962,8617
1980,8618
2040,8619
2052,8620
2084,8621
2051,8622
2024,8623
2029,8624
1968,8625
1956,8626
1960,8627
1966,8628
1929,8629
1929,8630
1931,8631
1907,8632
1961,8633
1958,8634
1976,8635
1973,8636
1971,8637
2026,8638
2011,8639
2101,8640
2199,8641
2224,8642
2311,8643
2375,8644
2358,8645
2232,8646
2076,8647
1968,8648
2007,8649
2217,8650
2262,8651
2199,8652
2053,8653
1913,8654
1841,8655
1747,8656
1684,8657
1602,8658
1670,8659
1850,8660
1969,8661
2084,8662
2208,8663
2222,8664
2291,8665
2237,8666
2120,8667
2025,8668
1921,8669
1823,8670
1779,8671
1746,8672
1737,8673
1867,8674
1977,8675
2088,8676
2219,8677
2444,8678
2462,8679
2374,8680
2193,8681
2176,8682
2139,8683
2035,8684
1980,8685
1917,8686
1724,8687
1647,8688
1625,8689
1668,8690
1681,8691
1680,8692
1711,8693
1773,8694
1852,8695
1872,8696
1892,8697
1896,8698
1872,8699
1921,8700
1936,8701
1961,8702
1965,8703
1957,8704
1997,8705
2015,8706
2063,8707
2061,8708
2035,8709
2030,8710
2005,8711
1968,8712
2000,8713
1967,8714
1957,8715
1996,8716
2063,8717
2128,8718
2231,8719
2176,8720
2108,8721
2038,8722
1944,8723
1880,8724
1878,8725
1868,8726
1862,8727
1892,8728
1878,8729
1940,8730
1984,8731
2020,8732
2084,8733
2323,8734
2778,8735
2981,8736
2974,8737
2770,8738
2468,8739
2151,8740
1872,8741
1676,8742
1475,8743
1335,8744
1291,8745
1387,8746
1527,8747
1704,8748
1752,8749
1810,8750
1867,8751
1896,8752
1923,8753
1953,8754
2064,8755
2176,8756
2490,8757
2740,8758
2834,8759
2711,8760
2470,8761
2226,8762
1907,8763
1657,8764
1548,8765
1520,8766
1499,8767
1578,8768
1603,8769
1689,8770
1764,8771
1819,8772
1897,8773
1931,8774
1948,8775
1952,8776
1914,8777
1969,8778
1967,8779
2016,8780
2023,8781
2076,8782
2066,8783
2031,8784
2024,8785
2019,8786
1982,8787
1971,8788
1967,8789
1961,8790
1918,8791
1947,8792
1940,8793
1957,8794
1967,8795
1955,8796
1954,8797
1938,8798
1960,8799
2012,8800
2016,8801
2032,8802
2019,8803
2054,8804
2015,8805
2030,8806
2006,8807
1980,8808
1975,8809
1917,8810
1939,8811
1942,8812
1984,8813
2035,8814
2056,8815
2144,8816
2247,8817
2328,8818
2328,8819
2312,8820
2221,8821
2074,8822
1964,8823
1821,8824
1743,8825
1701,8826
1657,8827
1752,8828
1842,8829
1865,8830
1900,8831
1935,8832
1995,8833
2024,8834
2067,8835
2254,8836
2337,8837
2294,8838
2193,8839
2085,8840
1987,8841
1920,8842
1866,8843
1849,8844
1820,8845
1836,8846
1827,8847
1799,8848
1799,8849
1911,8850
1943,8851
1937,8852
2027,8853
2022,8854
2021,8855
2001,8856
1964,8857
1968,8858
1995,8859
1979,8860
2011,8861
2030,8862
2015,8863
2023,8864
2016,8865
2008,8866
1974,8867
1987,8868
1953,8869
1933,8870
1936,8871
1884,8872
1925,8873
1973,8874
1978,8875
1975,8876
1971,8877
2018,8878
1992,8879
2003,8880
1997,8881
2035,8882
2031,8883
2019,8884
2015,8885
1989,8886
1991,8887
1988,8888
1957,8889
1965,8890
1948,8891
1948,8892
1949,8893
1969,8894
1943,8895
1974,8896
1986,8897
1997,8898
2020,8899
1974,8900
2030,8901
2031,8902
2020,8903
2032,8904
2022,8905
1980,8906
1986,8907
1956,8908
1959,8909
1951,8910
1962,8911
1976,8912
2000,8913
1943,8914
2002,8915
1949,8916
1988,8917
1982,8918
2001,8919
2025,8920
2012,8921
2030,8922
2036,8923
2045,8924
2039,8925
2038,8926
1999,8927
2020,8928
2043,8929
1998,8930
1968,8931
1973,8932
1937,8933
1954,8934
1950,8935
1961,8936
1959,8937
1955,8938
1988,8939
1990,8940
2012,8941
2007,8942
2025,8943
2027,8944
1987,8945
1976,8946
1964,8947
1911,8948
1966,8949
1994,8950
1982,8951
1962,8952
1964,8953
1894,8954
1946,8955
1949,8956
1953,8957
1987,8958
2029,8959
2032,8960
2069,8961
1991,8962
2002,8963
2058,8964
1966,8965
2008,8966
1983,8967
1987,8968
1979,8969
1955,8970
1952,8971
1957,8972
1964,8973
1921,8974
1967,8975
1961,8976
1994,8977
2001,8978
1974,8979
1968,8980
2026,8981
2029,8982
1995,8983
2001,8984
2004,8985
1983,8986
1982,8987
1967,8988
1954,8989
1936,8990
1984,8991
1934,8992
1949,8993
1965,8994
1973,8995
1985,8996
1977,8997
1978,8998
1992,8999
2015,9000
1983,9001
2033,9002
2008,9003
2004,9004
1992,9005
2004,9006
1972,9007
1926,9008
1949,9009
1930,9010
1930,9011
1929,9012
1927,9013
1934,9014
1957,9015
1978,9016
1976,9017
2021,9018
2001,9019
1989,9020
2008,9021
2003,9022
2007,9023
2024,9024
2003,9025
1980,9026
1988,9027
1952,9028
1960,9029
1898,9030
1921,9031
1902,9032
1945,9033
1928,9034
1945,9035
1968,9036
1962,9037
1943,9038
1992,9039
1983,9040
1984,9041
1988,9042
1986,9043
1992,9044
1987,9045
1980,9046
1942,9047
1958,9048
1914,9049
1947,9050
1935,9051
1931,9052
1959,9053
1948,9054
1934,9055
1958,9056
1974,9057
1948,9058
1993,9059
1981,9060
2008,9061
1996,9062
1987,9063
1951,9064
1967,9065
1952,9066
1943,9067
1949,9068
1966,9069
1943,9070
1943,9071
1957,9072
1958,9073
1939,9074
1968,9075
2008,9076
2013,9077
2007,9078
2009,9079
1999,9080
1970,9081
1980,9082
2019,9083
2000,9084
1986,9085
2013,9086
1966,9087
1950,9088
1936,9089
1962,9090
1908,9091
1937,9092
1935,9093
1979,9094
1960,9095
1988,9096
1993,9097
1990,9098
2019,9099
2012,9100
2036,9101
2014,9102
2049,9103
2003,9104
1992,9105
2000,9106
2010,9107
1933,9108
1961,9109
1950,9110
1950,9111
1946,9112
1992,9113
1953,9114
1940,9115
1960,9116
1933,9117
1991,9118
2034,9119
2035,9120
2016,9121
2019,9122
2043,9123
2035,9124
2031,9125
1995,9126
1993,9127
1969,9128
2011,9129
1965,9130
1941,9131
1999,9132
1986,9133
1967,9134
2017,9135
2015,9136
1999,9137
2000,9138
2023,9139
1982,9140
2016,9141
2027,9142
2006,9143
2053,9144
2056,9145
2005,9146
1989,9147
1956,9148
1976,9149
1981,9150
1970,9151
1955,9152
1983,9153
1980,9154
1968,9155
2024,9156
2064,9157
2023,9158
2007,9159
2016,9160
2047,9161
2017,9162
2048,9163
2014,9164
1983,9165
1991,9166
2004,9167
2014,9168
2008,9169
2000,9170
2031,9171
2041,9172
2002,9173
2039,9174
2007,9175
2038,9176
2057,9177
2007,9178
1999,9179
2056,9180
2063,9181
2015,9182
2034,9183
2007,9184
2012,9185
2023,9186
2016,9187
1983,9188
1981,9189
1993,9190
1961,9191
1954,9192
1963,9193
1980,9194
1952,9195
2029,9196
1992,9197
2002,9198
2035,9199
2068,9200
2064,9201
2094,9202
2078,9203
2092,9204
2108,9205
2020,9206
2064,9207
2027,9208
2024,9209
2033,9210
2031,9211
2008,9212
2015,9213
2020,9214
2045,9215
2044,9216
2045,9217
2042,9218
2045,9219
2050,9220
2072,9221
2045,9222
2032,9223
2054,9224
2025,9225
2026,9226
2044,9227
2000,9228
2028,9229
1990,9230
2020,9231
2025,9232
2008,9233
2009,9234
2025,9235
2016,9236
2047,9237
2058,9238
2043,9239
2027,9240
2053,9241
2038,9242
2046,9243
2032,9244
2012,9245
2062,9246
2022,9247
2013,9248
2008,9249
2014,9250
2008,9251
2004,9252
1983,9253
2062,9254
2027,9255
2015,9256
2025,9257
1993,9258
2011,9259
2035,9260
2058,9261
2029,9262
2059,9263
2048,9264
2055,9265
2038,9266
2048,9267
2082,9268
2035,9269
2023,9270
2037,9271
2001,9272
2031,9273
2040,9274
2060,9275
2053,9276
2031,9277
2048,9278
2070,9279
2062,9280
2039,9281
2082,9282
2061,9283
2056,9284
2016,9285
2064,9286
2031,9287
2017,9288
2039,9289
2045,9290
1996,9291
2009,9292
2008,9293
2015,9294
2060,9295
2026,9296
2038,9297
2047,9298
1987,9299
2048,9300
2080,9301
2027,9302
2057,9303
2061,9304
2032,9305
2046,9306
2052,9307
2059,9308
2033,9309
2065,9310
2021,9311
2037,9312
2039,9313
2054,9314
2048,9315
2083,9316
2039,9317
2043,9318
2087,9319
2080,9320
2018,9321
2106,9322
2089,9323
2064,9324
2053,9325
2078,9326
2049,9327
2033,9328
2056,9329
1991,9330
2012,9331
2032,9332
2046,9333
2039,9334
2072,9335
2047,9336
2026,9337
2085,9338
2068,9339
2049,9340
2083,9341
2053,9342
2064,9343
2083,9344
2059,9345
2054,9346
2069,9347
2031,9348
2012,9349
2063,9350
2013,9351
2022,9352
2042,9353
2039,9354
2030,9355
2043,9356
2007,9357
2057,9358
2063,9359
2091,9360
2084,9361
2088,9362
2077,9363
2083,9364
2039,9365
2085,9366
2063,9367
2032,9368
2030,9369
1995,9370
2001,9371
1998,9372
1959,9373
2027,9374
2037,9375
2027,9376
2075,9377
2047,9378
2088,9379
2080,9380
2100,9381
2106,9382
2117,9383
2092,9384
2087,9385
2090,9386
2067,9387
2080,9388
2051,9389
2066,9390
2034,9391
2028,9392
2069,9393
1995,9394
2064,9395
2063,9396
2048,9397
2088,9398
2078,9399
2079,9400
2055,9401
2059,9402
2092,9403
2048,9404
2028,9405
2048,9406
2052,9407
2044,9408
1989,9409
2018,9410
2037,9411
2041,9412
2028,9413
2056,9414
2040,9415
2040,9416
2071,9417
2058,9418
2087,9419
2072,9420
2079,9421
2088,9422
2093,9423
2059,9424
2076,9425
2061,9426
2032,9427
2013,9428
2032,9429
2019,9430
2068,9431
2009,9432
2034,9433
2055,9434
2063,9435
2066,9436
2058,9437
2036,9438
2074,9439
2104,9440
2066,9441
2056,9442
2096,9443
2052,9444
2048,9445
2079,9446
2038,9447
2004,9448
2021,9449
1958,9450
1999,9451
2012,9452
2031,9453
2012,9454
2033,9455
2046,9456
2051,9457
2074,9458
2077,9459
2099,9460
2121,9461
2130,9462
2091,9463
2066,9464
2090,9465
2045,9466
2019,9467
2055,9468
2044,9469
2021,9470
1999,9471
2027,9472
2024,9473
2055,9474
2059,9475
2056,9476
2067,9477
2072,9478
2060,9479
2074,9480
2097,9481
2063,9482
2085,9483
2048,9484
2049,9485
2054,9486
2020,9487
2047,9488
2035,9489
2017,9490
2016,9491
2037,9492
2041,9493
2048,9494
2033,9495
2049,9496
2057,9497
2050,9498
2095,9499
2075,9500
2080,9501
2063,9502
2075,9503
2082,9504
2044,9505
2040,9506
2040,9507
2023,9508
2047,9509
2020,9510
2023,9511
2020,9512
2008,9513
2054,9514
2020,9515
2047,9516
2046,9517
2044,9518
2090,9519
2065,9520
2087,9521
2076,9522
2067,9523
2073,9524
2032,9525
2033,9526
2047,9527
2033,9528
2036,9529
2024,9530
1983,9531
2038,9532
2002,9533
2039,9534
2023,9535
2033,9536
2050,9537
2034,9538
2020,9539
2049,9540
2051,9541
2090,9542
2053,9543
2046,9544
2025,9545
2040,9546
2055,9547
1997,9548
2034,9549
2057,9550
2041,9551
2081,9552
2048,9553
2071,9554
2057,9555
2056,9556
2098,9557
2063,9558
2066,9559
2089,9560
2086,9561
2100,9562
2045,9563
2050,9564
2031,9565
2036,9566
2064,9567
2049,9568
2044,9569
2009,9570
2029,9571
2040,9572
2021,9573
1995,9574
2062,9575
2059,9576
2064,9577
2068,9578
2094,9579
2093,9580
2081,9581
2085,9582
2035,9583
2049,9584
2058,9585
2047,9586
2034,9587
2048,9588
2034,9589
2024,9590
2033,9591
2021,9592
2027,9593
2052,9594
2056,9595
2031,9596
2063,9597
2078,9598
2097,9599
2090,9600
2063,9601
2069,9602
2038,9603
2066,9604
2058,9605
2047,9606
2047,9607
2030,9608
2044,9609
2042,9610
2025,9611
2009,9612
2060,9613
2024,9614
2018,9615
2057,9616
2050,9617
2068,9618
2050,9619
2056,9620
2053,9621
2071,9622
2070,9623
2066,9624
2105,9625
2041,9626
2023,9627
2055,9628
2021,9629
2023,9630
2017,9631
1991,9632
2020,9633
2014,9634
2004,9635
2027,9636
2007,9637
2053,9638
2080,9639
2071,9640
2081,9641
2091,9642
2105,9643
2086,9644
2114,9645
2040,9646
2048,9647
2046,9648
2031,9649
2058,9650
2032,9651
2021,9652
2015,9653
2040,9654
2066,9655
2027,9656
2072,9657
2074,9658
2057,9659
2092,9660
2109,9661
2077,9662
2078,9663
2066,9664
2048,9665
2037,9666
2013,9667
2041,9668
2019,9669
2019,9670
2009,9671
2040,9672
2030,9673
2047,9674
2070,9675
2062,9676
2059,9677
2054,9678
2072,9679
2079,9680
2054,9681
2102,9682
2060,9683
2076,9684
2045,9685
2051,9686
2046,9687
2001,9688
1995,9689
1992,9690
2050,9691
2015,9692
2027,9693
2041,9694
2039,9695
2057,9696
2060,9697
2063,9698
2058,9699
2061,9700
2073,9701
2076,9702
2058,9703
2048,9704
2027,9705
2067,9706
2012,9707
2020,9708
2037,9709
2014,9710
2046,9711
1993,9712
1975,9713
2008,9714
2060,9715
2024,9716
2070,9717
2066,9718
2072,9719
2076,9720
2068,9721
2043,9722
2072,9723
2037,9724
2060,9725
2030,9726
2040,9727
2029,9728
2007,9729
2000,9730
1968,9731
1997,9732
2033,9733
2022,9734
2042,9735
2041,9736
2038,9737
2068,9738
2106,9739
2076,9740
2068,9741
2137,9742
2048,9743
2048,9744
2030,9745
2001,9746
2027,9747
2045,9748
1988,9749
1981,9750
2001,9751
2023,9752
2026,9753
2050,9754
2016,9755
2017,9756
2037,9757
2049,9758
2053,9759
2049,9760
2074,9761
2052,9762
2055,9763
2060,9764
1997,9765
2023,9766
2003,9767
2011,9768
2028,9769
2011,9770
2024,9771
2025,9772
2028,9773
2052,9774
2049,9775
2041,9776
2068,9777
2065,9778
2049,9779
2053,9780
2066,9781
2072,9782
2071,9783
2044,9784
2045,9785
2047,9786
2005,9787
2045,9788
1992,9789
1982,9790
2014,9791
1998,9792
2016,9793
2019,9794
2005,9795
2045,9796
2049,9797
2049,9798
2034,9799
2039,9800
2086,9801
2040,9802
2060,9803
2010,9804
2024,9805
2047,9806
1996,9807
2010,9808
1974,9809
1974,9810
2018,9811
1949,9812
2007,9813
2002,9814
2008,9815
2063,9816
2039,9817
2051,9818
2053,9819
2055,9820
2056,9821
2059,9822
2101,9823
2047,9824
2052,9825
2051,9826
2034,9827
2047,9828
2044,9829
1997,9830
2020,9831
2005,9832
2037,9833
2027,9834
2047,9835
2080,9836
2060,9837
2063,9838
2046,9839
2089,9840
2054,9841
2046,9842
2054,9843
2041,9844
2055,9845
2027,9846
2030,9847
1999,9848
2015,9849
2037,9850
1990,9851
2000,9852
2033,9853
2015,9854
2033,9855
2056,9856
2044,9857
2059,9858
2062,9859
2067,9860
2084,9861
2048,9862
2062,9863
2074,9864
2060,9865
2021,9866
1986,9867
2017,9868
2022,9869
2001,9870
2014,9871
2021,9872
2015,9873
2025,9874
2047,9875
2049,9876
2042,9877
2055,9878
2031,9879
2067,9880
2082,9881
2026,9882
2039,9883
1999,9884
2047,9885
1985,9886
1980,9887
1997,9888
2000,9889
2000,9890
2017,9891
2017,9892
2023,9893
2018,9894
2035,9895
2041,9896
2080,9897
2066,9898
2054,9899
2059,9900
2064,9901
2058,9902
2021,9903
2039,9904
2039,9905
2014,9906
2022,9907
2016,9908
2020,9909
1990,9910
2011,9911
2018,9912
2005,9913
2026,9914
2032,9915
2008,9916
2038,9917
2067,9918
2020,9919
2025,9920
2040,9921
2050,9922
2053,9923
2042,9924
2019,9925
1999,9926
2033,9927
2038,9928
2008,9929
2000,9930
1985,9931
1979,9932
2013,9933
2040,9934
2007,9935
2042,9936
2093,9937
2005,9938
2059,9939
2032,9940
2039,9941
2051,9942
2030,9943
2016,9944
1975,9945
2003,9946
2021,9947
1941,9948
1974,9949
2016,9950
1975,9951
2028,9952
2016,9953
2000,9954
1989,9955
2055,9956
2047,9957
2049,9958
2007,9959
2085,9960
2068,9961
2046,9962
2040,9963
2026,9964
2040,9965
2014,9966
2021,9967
2001,9968
1964,9969
2000,9970
1996,9971
2010,9972
2030,9973
2016,9974
2024,9975
2027,9976
2034,9977
2083,9978
2060,9979
2052,9980
2055,9981
2041,9982
2050,9983
2068,9984
2017,9985
2034,9986
2007,9987
1992,9988
2031,9989
2011,9990
2003,9991
2032,9992
2031,9993
2015,9994
2020,9995
1999,9996
2056,9997
2056,9998
2055,9999
2061,10000
2045,10001
2043,10002
2050,10003
2050,10004
2011,10005
2041,10006
1985,10007
1999,10008
2008,10009
2021,10010
1972,10011
1982,10012
2041,10013
2015,10014
2033,10015
2006,10016
2008,10017
2018,10018
2033,10019
2044,10020
2036,10021
2021,10022
2028,10023
2013,10024
1996,10025
1988,10026
1989,10027
1997,10028
1996,10029
1964,10030
1967,10031
1994,10032
2010,10033
2016,10034
2023,10035
2040,10036
2039,10037
2040,10038
2027,10039
2056,10040
2055,10041
2013,10042
2023,10043
2018,10044
2023,10045
2029,10046
2008,10047
1969,10048
1996,10049
1995,10050
2012,10051
2001,10052
2001,10053
2030,10054
2063,10055
2002,10056
1999,10057
2039,10058
2078,10059
2043,10060
2061,10061
2046,10062
2025,10063
1994,10064
2017,10065
1998,10066
1966,10067
1953,10068
1971,10069
1992,10070
1982,10071
1991,10072
2030,10073
2034,10074
2029,10075
2043,10076
2048,10077
2036,10078
2066,10079
2060,10080
2080,10081
2072,10082
2047,10083
2018,10084
2049,10085
2053,10086
2004,10087
2034,10088
1986,10089
1968,10090
1992,10091
1996,10092
1989,10093
2033,10094
2036,10095
2051,10096
2047,10097
2058,10098
2037,10099
2050,10100
2037,10101
2035,10102
2020,10103
2036,10104
1988,10105
2034,10106
1991,10107
2011,10108
1982,10109
1999,10110
1955,10111
2011,10112
2013,10113
2023,10114
2018,10115
2042,10116
2027,10117
2020,10118
2033,10119
2041,10120
2035,10121
2036,10122
2023,10123
2055,10124
2001,10125
2002,10126
2024,10127
2000,10128
1985,10129
2019,10130
2010,10131
1983,10132
1983,10133
2025,10134
1999,10135
1990,10136
2022,10137
2064,10138
2056,10139
2019,10140
2016,10141
2022,10142
2027,10143
2038,10144
2013,10145
1984,10146
1988,10147
2004,10148
1960,10149
1998,10150
2021,10151
1981,10152
1987,10153
1965,10154
2007,10155
2020,10156
1995,10157
2032,10158
2034,10159
2038,10160
2037,10161
2059,10162
2040,10163
2045,10164
2007,10165
2032,10166
2011,10167
1998,10168
2000,10169
1993,10170
2016,10171
2022,10172
2032,10173
2012,10174
2021,10175
2043,10176
2029,10177
2021,10178
2065,10179
2057,10180
2052,10181
2030,10182
2009,10183
1997,10184
1999,10185
2002,10186
1986,10187
1973,10188
1978,10189
1980,10190
1978,10191
2014,10192
2034,10193
2046,10194
1987,10195
1997,10196
2024,10197
2048,10198
2059,10199
2048,10200
2022,10201
2029,10202
2055,10203
2048,10204
1991,10205
2001,10206
2010,10207
1978,10208
1987,10209
1984,10210
1991,10211
2004,10212
1982,10213
2008,10214
2058,10215
2053,10216
2031,10217
2030,10218
2029,10219
2039,10220
2056,10221
2029,10222
2036,10223
2013,10224
2007,10225
1990,10226
1973,10227
1980,10228
2000,10229
1980,10230
1955,10231
1990,10232
1981,10233
1972,10234
1995,10235
1995,10236
1979,10237
2040,10238
2017,10239
2044,10240
2018,10241
2032,10242
2014,10243
2034,10244
2009,10245
2036,10246
1986,10247
1990,10248
1999,10249
2027,10250
1987,10251
1969,10252
2022,10253
2044,10254
1990,10255
2047,10256
2034,10257
2064,10258
2052,10259
2048,10260
2044,10261
1999,10262
2036,10263
2003,10264
2032,10265
1994,10266
2019,10267
1975,10268
1977,10269
1997,10270
2006,10271
2007,10272
2011,10273
1965,10274
2046,10275
2032,10276
2031,10277
2027,10278
2048,10279
2053,10280
2042,10281
2029,10282
2037,10283
2030,10284
2024,10285
2000,10286
2003,10287
1963,10288
2021,10289
1979,10290
1957,10291
1973,10292
2020,10293
2001,10294
2007,10295
2020,10296
2058,10297
2032,10298
2049,10299
2057,10300
2049,10301
2047,10302
2016,10303
2030,10304
1984,10305
2018,10306
1984,10307
1999,10308
1991,10309
1995,10310
1988,10311
1991,10312
1982,10313
1987,10314
2005,10315
2011,10316
2017,10317
2019,10318
2040,10319
2009,10320
2020,10321
2043,10322
2029,10323
1987,10324
2010,10325
2014,10326
1980,10327
1971,10328
1943,10329
1939,10330
1992,10331
2001,10332
1989,10333
1990,10334
2007,10335
1987,10336
2010,10337
2051,10338
2014,10339
2055,10340
2013,10341
2024,10342
2033,10343
2032,10344
1999,10345
1999,10346
2006,10347
1972,10348
1977,10349
1990,10350
1966,10351
2006,10352
1971,10353
1999,10354
1975,10355
2029,10356
2006,10357
2068,10358
2053,10359
2019,10360
2067,10361
2023,10362
2027,10363
2014,10364
2036,10365
2017,10366
2009,10367
1987,10368
1999,10369
1951,10370
1984,10371
2000,10372
2012,10373
2032,10374
2021,10375
2024,10376
2016,10377
2052,10378
2056,10379
2048,10380
2033,10381
2016,10382
2004,10383
2023,10384
1997,10385
1998,10386
1990,10387
1962,10388
1937,10389
1969,10390
1983,10391
2007,10392
2005,10393
2006,10394
2005,10395
2012,10396
2024,10397
2033,10398
2028,10399
2032,10400
2023,10401
2028,10402
2013,10403
2007,10404
1996,10405
2048,10406
1974,10407
2001,10408
1960,10409
2008,10410
1981,10411
2017,10412
1994,10413
1983,10414
2029,10415
2035,10416
1996,10417
2059,10418
2041,10419
2060,10420
2027,10421
2041,10422
2037,10423
2036,10424
1994,10425
2013,10426
2007,10427
1996,10428
1996,10429
2027,10430
1982,10431
1996,10432
1984,10433
2018,10434
2014,10435
1968,10436
1979,10437
2044,10438
2028,10439
2040,10440
2041,10441
2037,10442
2005,10443
1996,10444
1994,10445
1992,10446
2012,10447
2011,10448
1963,10449
1976,10450
2023,10451
1998,10452
1997,10453
2016,10454
2039,10455
2050,10456
2015,10457
2039,10458
2049,10459
2039,10460
2028,10461
2013,10462
2007,10463
2003,10464
2001,10465
1993,10466
1977,10467
2008,10468
1988,10469
1987,10470
1950,10471
1981,10472
2026,10473
1993,10474
1985,10475
1968,10476
2016,10477
2046,10478
2016,10479
2055,10480
2035,10481
2026,10482
2050,10483
2026,10484
2010,10485
2002,10486
2052,10487
1986,10488
2006,10489
2002,10490
1976,10491
2011,10492
2024,10493
2010,10494
2024,10495
2027,10496
2039,10497
2037,10498
2025,10499
2048,10500
2052,10501
2012,10502
1997,10503
2041,10504
2014,10505
2001,10506
1998,10507
1976,10508
1982,10509
2021,10510
1968,10511
1985,10512
1995,10513
2020,10514
2011,10515
1989,10516
1980,10517
2038,10518
2046,10519
2018,10520
2042,10521
2044,10522
2036,10523
1991,10524
2011,10525
1967,10526
1941,10527
1992,10528
1967,10529
2007,10530
2003,10531
2027,10532
2018,10533
2019,10534
2008,10535
2011,10536
2031,10537
2069,10538
2047,10539
2056,10540
2065,10541
2044,10542
2036,10543
2022,10544
1996,10545
2006,10546
1994,10547
1968,10548
2004,10549
2005,10550
2016,10551
2002,10552
2003,10553
2001,10554
2045,10555
2038,10556
2012,10557
2012,10558
1995,10559
2013,10560
2026,10561
2004,10562
1999,10563
2001,10564
2001,10565
1975,10566
2036,10567
2024,10568
2010,10569
2010,10570
1980,10571
1995,10572
2032,10573
2010,10574
2020,10575
2032,10576
2048,10577
2046,10578
2035,10579
2040,10580
2024,10581
1987,10582
2047,10583
2007,10584
1987,10585
1989,10586
1989,10587
2015,10588
1999,10589
1976,10590
2014,10591
1984,10592
1999,10593
2008,10594
1994,10595
1963,10596
2028,10597
2008,10598
2025,10599
2033,10600
1993,10601
2019,10602
2015,10603
2004,10604
1994,10605
1990,10606
1983,10607
1991,10608
2012,10609
2000,10610
1976,10611
2001,10612
1999,10613
2010,10614
1999,10615
2012,10616
2067,10617
2051,10618
2029,10619
2046,10620
2044,10621
2015,10622
1984,10623
1985,10624
2012,10625
2009,10626
2001,10627
1984,10628
2023,10629
2000,10630
2009,10631
1981,10632
1982,10633
1975,10634
2032,10635
2017,10636
2011,10637
2047,10638
2036,10639
2030,10640
2038,10641
1993,10642
2013,10643
2031,10644
2011,10645
1985,10646
2000,10647
1947,10648
1973,10649
1993,10650
1995,10651
2003,10652
2017,10653
2021,10654
1998,10655
2021,10656
2034,10657
2027,10658
2012,10659
2052,10660
2024,10661
2015,10662
2023,10663
2021,10664
2036,10665
1974,10666
1987,10667
1991,10668
2013,10669
1946,10670
1975,10671
1979,10672
2004,10673
2021,10674
2012,10675
2015,10676
2040,10677
2016,10678
2037,10679
2009,10680
2033,10681
1989,10682
1989,10683
1987,10684
2012,10685
1972,10686
1979,10687
2010,10688
1994,10689
2003,10690
1980,10691
1990,10692
1964,10693
2003,10694
2031,10695
2041,10696
2036,10697
2028,10698
2037,10699
2083,10700
2045,10701
2023,10702
2033,10703
2046,10704
2006,10705
1984,10706
1994,10707
2006,10708
1953,10709
1968,10710
1963,10711
2003,10712
2003,10713
2021,10714
1996,10715
2020,10716
2000,10717
2032,10718
2014,10719
2036,10720
2028,10721
2011,10722
2031,10723
2024,10724
1999,10725
2000,10726
1996,10727
1984,10728
1960,10729
1995,10730
1980,10731
1988,10732
1997,10733
2032,10734
1993,10735
2023,10736
2040,10737
2009,10738
2041,10739
2029,10740
2012,10741
1997,10742
2011,10743
1990,10744
1983,10745
1947,10746
1954,10747
1997,10748
1981,10749
1967,10750
1997,10751
2012,10752
2000,10753
2013,10754
2011,10755
2036,10756
2036,10757
2023,10758
2054,10759
2003,10760
2062,10761
2030,10762
2018,10763
2017,10764
1984,10765
1976,10766
1993,10767
2000,10768
1989,10769
1967,10770
2003,10771
1980,10772
2045,10773
1995,10774
1999,10775
2000,10776
2024,10777
2029,10778
2036,10779
2012,10780
2044,10781
2006,10782
2019,10783
2014,10784
1993,10785
1997,10786
1992,10787
1982,10788
1988,10789
1972,10790
1994,10791
1975,10792
1976,10793
1992,10794
2000,10795
2000,10796
2026,10797
2045,10798
2055,10799
2061,10800
2029,10801
2044,10802
1999,10803
1975,10804
2008,10805
1978,10806
1963,10807
1996,10808
1988,10809
1965,10810
1996,10811
2001,10812
1986,10813
1995,10814
1990,10815
2014,10816
2004,10817
2046,10818
2064,10819
2023,10820
2048,10821
2014,10822
2009,10823
2026,10824
1988,10825
2003,10826
1984,10827
1992,10828
2000,10829
1981,10830
1962,10831
2001,10832
1988,10833
2032,10834
2012,10835
2039,10836
2027,10837
2034,10838
2028,10839
2079,10840
2021,10841
2025,10842
2011,10843
2015,10844
1988,10845
1944,10846
1967,10847
1997,10848
1976,10849
1953,10850
1979,10851
1991,10852
2002,10853
1999,10854
2009,10855
2029,10856
2019,10857
2002,10858
2016,10859
2046,10860
2041,10861
1983,10862
1986,10863
1964,10864
1999,10865
1974,10866
2001,10867
2014,10868
1966,10869
1984,10870
2004,10871
2000,10872
2011,10873
2004,10874
2025,10875
2007,10876
2018,10877
2033,10878
2013,10879
2036,10880
2047,10881
2036,10882
2034,10883
2010,10884
1999,10885
1975,10886
1971,10887
1999,10888
1984,10889
1999,10890
1959,10891
1979,10892
2008,10893
2038,10894
2003,10895
2009,10896
2032,10897
2027,10898
1997,10899
2032,10900
2023,10901
2008,10902
2026,10903
2003,10904
1997,10905
1997,10906
1976,10907
1997,10908
1968,10909
1984,10910
2005,10911
1991,10912
1985,10913
2004,10914
2002,10915
2018,10916
2032,10917
2065,10918
2046,10919
2034,10920
2030,10921
1994,10922
2016,10923
1962,10924
1978,10925
1966,10926
1973,10927
2000,10928
1994,10929
1994,10930
1965,10931
1978,10932
1959,10933
1988,10934
2014,10935
2015,10936
2030,10937
2056,10938
2062,10939
2027,10940
2032,10941
2013,10942
2056,10943
2017,10944
1993,10945
1985,10946
1993,10947
1994,10948
2001,10949
1959,10950
2010,10951
1988,10952
2007,10953
2004,10954
2023,10955
2025,10956
2047,10957
2047,10958
2053,10959
2030,10960
2058,10961
2025,10962
1999,10963
1999,10964
2012,10965
1967,10966
1998,10967
1992,10968
1972,10969
1998,10970
1969,10971
2026,10972
1990,10973
2013,10974
2031,10975
1998,10976
2020,10977
2032,10978
2073,10979
2026,10980
2040,10981
2022,10982
1994,10983
2008,10984
1982,10985
2010,10986
1992,10987
1951,10988
1997,10989
1978,10990
2016,10991
2014,10992
2019,10993
1981,10994
2027,10995
2026,10996
2036,10997
2019,10998
2047,10999
2032,11000
2035,11001
2016,11002
2036,11003
1987,11004
1989,11005
2025,11006
2002,11007
1973,11008
1947,11009
1957,11010
2003,11011
2017,11012
1994,11013
2015,11014
2042,11015
2014,11016
2031,11017
2018,11018
2025,11019
2023,11020
1991,11021
1997,11022
2015,11023
1999,11024
1994,11025
1990,11026
2002,11027
1982,11028
2002,11029
2009,11030
2010,11031
1956,11032
2003,11033
2047,11034
2008,11035
2021,11036
2037,11037
2062,11038
2028,11039
2038,11040
2003,11041
2015,11042
2020,11043
1968,11044
1992,11045
1982,11046
1992,11047
1991,11048
1957,11049
1997,11050
2010,11051
1983,11052
1991,11053
2028,11054
2019,11055
2010,11056
2001,11057
2032,11058
2044,11059
2041,11060
2018,11061
2023,11062
2013,11063
1993,11064
1967,11065
1950,11066
1947,11067
1957,11068
1984,11069
1976,11070
2018,11071
2001,11072
2009,11073
2031,11074
1995,11075
2016,11076
2006,11077
2016,11078
2021,11079
2027,11080
2021,11081
2014,11082
1980,11083
2013,11084
1981,11085
1963,11086
1965,11087
1981,11088
1995,11089
2010,11090
2001,11091
2040,11092
2000,11093
2023,11094
2039,11095
1998,11096
2009,11097
2030,11098
2022,11099
2063,11100
2015,11101
2040,11102
1999,11103
2035,11104
2019,11105
1973,11106
1971,11107
1978,11108
1933,11109
1984,11110
2015,11111
1960,11112
2028,11113
1997,11114
2023,11115
2036,11116
2045,11117
2021,11118
2031,11119
2017,11120
2011,11121
2018,11122
1999,11123
1996,11124
1969,11125
1950,11126
1968,11127
1955,11128
1969,11129
1994,11130
1978,11131
1979,11132
2042,11133
2024,11134
2027,11135
2027,11136
2003,11137
2057,11138
2062,11139
2009,11140
2029,11141
2000,11142
1998,11143
1992,11144
1994,11145
1972,11146
1965,11147
1931,11148
1965,11149
1975,11150
1991,11151
1996,11152
1992,11153
2002,11154
2028,11155
2029,11156
2032,11157
2042,11158
2036,11159
2035,11160
2003,11161
2032,11162
1993,11163
1978,11164
1989,11165
2000,11166
1984,11167
2006,11168
1977,11169
1959,11170
1991,11171
2006,11172
1978,11173
2035,11174
2009,11175
2033,11176
2044,11177
2000,11178
2050,11179
2007,11180
2018,11181
2000,11182
2016,11183
1992,11184
1958,11185
1983,11186
1981,11187
1988,11188
1979,11189
1987,11190
1991,11191
1971,11192
1989,11193
2006,11194
2013,11195
2022,11196
2004,11197
2024,11198
2023,11199
2016,11200
2042,11201
2003,11202
2008,11203
2008,11204
1979,11205
1951,11206
2002,11207
1978,11208
1951,11209
1931,11210
1989,11211
1982,11212
1969,11213
1980,11214
2004,11215
2038,11216
2043,11217
2026,11218
2038,11219
2044,11220
2017,11221
2026,11222
2022,11223
2011,11224
2002,11225
1989,11226
1974,11227
1967,11228
1957,11229
1988,11230
1999,11231
1984,11232
2000,11233
2001,11234
2009,11235
2007,11236
2034,11237
2049,11238
2037,11239
2030,11240
2010,11241
2001,11242
2008,11243
1983,11244
1987,11245
1972,11246
1992,11247
1949,11248
1980,11249
1969,11250
1982,11251
1983,11252
1976,11253
2001,11254
1996,11255
2015,11256
2034,11257
2011,11258
2023,11259
2004,11260
1990,11261
1999,11262
1981,11263
1993,11264
1977,11265
1996,11266
1990,11267
2000,11268
1989,11269
1985,11270
1964,11271
1990,11272
2006,11273
2004,11274
2014,11275
2036,11276
2052,11277
2048,11278
2037,11279
2011,11280
2020,11281
2009,11282
2014,11283
1971,11284
1974,11285
1980,11286
1966,11287
1978,11288
1946,11289
1998,11290
2002,11291
1990,11292
1977,11293
1994,11294
2020,11295
2021,11296
2050,11297
2050,11298
2035,11299
2017,11300
2021,11301
2018,11302
2017,11303
2011,11304
2015,11305
1975,11306
2012,11307
1985,11308
1967,11309
1990,11310
2003,11311
2001,11312
1996,11313
2030,11314
2020,11315
2002,11316
2049,11317
2028,11318
2011,11319
2026,11320
2017,11321
2020,11322
1986,11323
2008,11324
1958,11325
1948,11326
1962,11327
1981,11328
1968,11329
1992,11330
1985,11331
1988,11332
2008,11333
2001,11334
1981,11335
2007,11336
2028,11337
2016,11338
2016,11339
1987,11340
2010,11341
2019,11342
1980,11343
1973,11344
1993,11345
1995,11346
1980,11347
1973,11348
1980,11349
2001,11350
1974,11351
1951,11352
1992,11353
1997,11354
2018,11355
2031,11356
2039,11357
2039,11358
2048,11359
2019,11360
2017,11361
2011,11362
2015,11363
1999,11364
1946,11365
1949,11366
1981,11367
1966,11368
1961,11369
1968,11370
1980,11371
1978,11372
1977,11373
2020,11374
2015,11375
2035,11376
2018,11377
2044,11378
2032,11379
1991,11380
2019,11381
1990,11382
1983,11383
1991,11384
1976,11385
1939,11386
1968,11387
1995,11388
1968,11389
1989,11390
2000,11391
1999,11392
1970,11393
1995,11394
2011,11395
1999,11396
2005,11397
1999,11398
2014,11399
1999,11400
2013,11401
1984,11402
1982,11403
1941,11404
1944,11405
1952,11406
1954,11407
1964,11408
1967,11409
2002,11410
1993,11411
1973,11412
1987,11413
1991,11414
2024,11415
2011,11416
2002,11417
1997,11418
2028,11419
2016,11420
2033,11421
2017,11422
2010,11423
1992,11424
1980,11425
1968,11426
1964,11427
1960,11428
1953,11429
1962,11430
1949,11431
1992,11432
2015,11433
2001,11434
2015,11435
2017,11436
2042,11437
2027,11438
2024,11439
2023,11440
2028,11441
1990,11442
2016,11443
1983,11444
1976,11445
1988,11446
1981,11447
1984,11448
1969,11449
1990,11450
2008,11451
2002,11452
1991,11453
1998,11454
2019,11455
2003,11456
2041,11457
2048,11458
2027,11459
2015,11460
2012,11461
2008,11462
2000,11463
2002,11464
1981,11465
1956,11466
1965,11467
1957,11468
1969,11469
1982,11470
1986,11471
1987,11472
1997,11473
1987,11474
2007,11475
2015,11476
2025,11477
2023,11478
2019,11479
2009,11480
2024,11481
2016,11482
1989,11483
1965,11484
1969,11485
1955,11486
1968,11487
1985,11488
1982,11489
1989,11490
1951,11491
2000,11492
2007,11493
2001,11494
2050,11495
2021,11496
2048,11497
2024,11498
2046,11499
2016,11500
2003,11501
1991,11502
1992,11503
1984,11504
1957,11505
1983,11506
1984,11507
1974,11508
1978,11509
1982,11510
1967,11511
2025,11512
2007,11513
2013,11514
1998,11515
2049,11516
2041,11517
2042,11518
2024,11519
2017,11520
2013,11521
2013,11522
1984,11523
1973,11524
1982,11525
1986,11526
1962,11527
2011,11528
1957,11529
1938,11530
1989,11531
1996,11532
1988,11533
2025,11534
2044,11535
2018,11536
2004,11537
2028,11538
2010,11539
2003,11540
2040,11541
1988,11542
1989,11543
1988,11544
1964,11545
1945,11546
1935,11547
1964,11548
1969,11549
1961,11550
1966,11551
1990,11552
2016,11553
2008,11554
1991,11555
2037,11556
2045,11557
2030,11558
2057,11559
2018,11560
2032,11561
2005,11562
2015,11563
1998,11564
1990,11565
1979,11566
1977,11567
1955,11568
1977,11569
1968,11570
1995,11571
1947,11572
1999,11573
1997,11574
2003,11575
2016,11576
2008,11577
2014,11578
2013,11579
1981,11580
1982,11581
2015,11582
1992,11583
1993,11584
1979,11585
1950,11586
1981,11587
1976,11588
1981,11589
1986,11590
1967,11591
1959,11592
2016,11593
2027,11594
2024,11595
2010,11596
2040,11597
2025,11598
1991,11599
2054,11600
2007,11601
1990,11602
1988,11603
1971,11604
1959,11605
1990,11606
1943,11607
1944,11608
1978,11609
1982,11610
1935,11611
1950,11612
1980,11613
2009,11614
2016,11615
2022,11616
1992,11617
2014,11618
2011,11619
2015,11620
2003,11621
1991,11622
1979,11623
1991,11624
2000,11625
2001,11626
1973,11627
1973,11628
1987,11629
1984,11630
1971,11631
2027,11632
2003,11633
2016,11634
2038,11635
2030,11636
2038,11637
2047,11638
2008,11639
2016,11640
1992,11641
2008,11642
1976,11643
1993,11644
1965,11645
1995,11646
1995,11647
1940,11648
1963,11649
1998,11650
1988,11651
2007,11652
2003,11653
2021,11654
2027,11655
2002,11656
2031,11657
2015,11658
2048,11659
2023,11660
2008,11661
1975,11662
2003,11663
1971,11664
1991,11665
1970,11666
1972,11667
1965,11668
1979,11669
1971,11670
2003,11671
2003,11672
1990,11673
1993,11674
2043,11675
2018,11676
2000,11677
2029,11678
2027,11679
2027,11680
1999,11681
1994,11682
1995,11683
1974,11684
1957,11685
1971,11686
1960,11687
1965,11688
1941,11689
1926,11690
1993,11691
1974,11692
1974,11693
2007,11694
1979,11695
2007,11696
2044,11697
2021,11698
2011,11699
2032,11700
2026,11701
2027,11702
2007,11703
1973,11704
2004,11705
1974,11706
1986,11707
1979,11708
1985,11709
2000,11710
1961,11711
2001,11712
2024,11713
2001,11714
2000,11715
1996,11716
2028,11717
2047,11718
2014,11719
2032,11720
2051,11721
2031,11722
2056,11723
2013,11724
2014,11725
2030,11726
1955,11727
1964,11728
1971,11729
1958,11730
1948,11731
1979,11732
1985,11733
1988,11734
1996,11735
1987,11736
2018,11737
2016,11738
1989,11739
2016,11740
2001,11741
1980,11742
1965,11743
1987,11744
1974,11745
1969,11746
1969,11747
1973,11748
1943,11749
2018,11750
2001,11751
1964,11752
1973,11753
2009,11754
2006,11755
2002,11756
2033,11757
2030,11758
2008,11759
1966,11760
1995,11761
1975,11762
1965,11763
1935,11764
1956,11765
1953,11766
1931,11767
1924,11768
1908,11769
1967,11770
1975,11771
1999,11772
2008,11773
2006,11774
2010,11775
1986,11776
2046,11777
2024,11778
2029,11779
2004,11780
2001,11781
2028,11782
2002,11783
1992,11784
1992,11785
1972,11786
1962,11787
1975,11788
1989,11789
1977,11790
1991,11791
1939,11792
1980,11793
2032,11794
1998,11795
2005,11796
1990,11797
2014,11798
2003,11799
2001,11800
2010,11801
1988,11802
1984,11803
1993,11804
1952,11805
1996,11806
1959,11807
1964,11808
1990,11809
1975,11810
2018,11811
2012,11812
1988,11813
2011,11814
2019,11815
2010,11816
1998,11817
2011,11818
2014,11819
2015,11820
1951,11821
1974,11822
2026,11823
1993,11824
1967,11825
1976,11826
1948,11827
2004,11828
1976,11829
1944,11830
1978,11831
1997,11832
1986,11833
2018,11834
1971,11835
2005,11836
2014,11837
2005,11838
1976,11839
1975,11840
2007,11841
1944,11842
1988,11843
1964,11844
1983,11845
1985,11846
1939,11847
1960,11848
2005,11849
1975,11850
1986,11851
1991,11852
1982,11853
2004,11854
1983,11855
1979,11856
2018,11857
1988,11858
1981,11859
2007,11860
1967,11861
1987,11862
1978,11863
1966,11864
1959,11865
1948,11866
1954,11867
1956,11868
1976,11869
2011,11870
1988,11871
2008,11872
2022,11873
2024,11874
2028,11875
2005,11876
2042,11877
2030,11878
2037,11879
2004,11880
2008,11881
1999,11882
1989,11883
1977,11884
1954,11885
1975,11886
1964,11887
1974,11888
1967,11889
1997,11890
2011,11891
2013,11892
2009,11893
2007,11894
2013,11895
2011,11896
2034,11897
2005,11898
2008,11899
2011,11900
2013,11901
1984,11902
2001,11903
1946,11904
2000,11905
1976,11906
1959,11907
1987,11908
1989,11909
1977,11910
1970,11911
1984,11912
2031,11913
2023,11914
2018,11915
2018,11916
2031,11917
2035,11918
2031,11919
2011,11920
2020,11921
2005,11922
1997,11923
2006,11924
1971,11925
1986,11926
1983,11927
1931,11928
1988,11929
1983,11930
2027,11931
2010,11932
2035,11933
2023,11934
2019,11935
1999,11936
2044,11937
1994,11938
2027,11939
2009,11940
1999,11941
2046,11942
2006,11943
1994,11944
1982,11945
1975,11946
1977,11947
1988,11948
2000,11949
1983,11950
1959,11951
2042,11952
2014,11953
2000,11954
2041,11955
2027,11956
1990,11957
2050,11958
2024,11959
2030,11960
2029,11961
1967,11962
1982,11963
1999,11964
1975,11965
1992,11966
1969,11967
1991,11968
1989,11969
2016,11970
2002,11971
1996,11972
2017,11973
2003,11974
2007,11975
2044,11976
2047,11977
2024,11978
2027,11979
2033,11980
2017,11981
2026,11982
1979,11983
2017,11984
1996,11985
1963,11986
1971,11987
1993,11988
1992,11989
1987,11990
2014,11991
2000,11992
2036,11993
2053,11994
2035,11995
2047,11996
2020,11997
2001,11998
2045,11999
2025,12000
2012,12001
2024,12002
1992,12003
1991,12004
1970,12005
1964,12006
1968,12007
1963,12008
1969,12009
1972,12010
1954,12011
1981,12012
2008,12013
2000,12014
2044,12015
2055,12016
2061,12017
2045,12018
2024,12019
2041,12020
2017,12021
2022,12022
1978,12023
2015,12024
2003,12025
2010,12026
1990,12027
1975,12028
2004,12029
1961,12030
2010,12031
2002,12032
2015,12033
2017,12034
2005,12035
2028,12036
2031,12037
2033,12038
2039,12039
2036,12040
2034,12041
2027,12042
1963,12043
1976,12044
1989,12045
1987,12046
1990,12047
2016,12048
1999,12049
2002,12050
2027,12051
2002,12052
2015,12053
2022,12054
2027,12055
2043,12056
2039,12057
2035,12058
2051,12059
2011,12060
2002,12061
2028,12062
2020,12063
1984,12064
1982,12065
1999,12066
1995,12067
2002,12068
1994,12069
2010,12070
2001,12071
2030,12072
2033,12073
2040,12074
2049,12075
2056,12076
2048,12077
2050,12078
2033,12079
2064,12080
2030,12081
2019,12082
2001,12083
1979,12084
1967,12085
2000,12086
1976,12087
1992,12088
2000,12089
1994,12090
2036,12091
2014,12092
1994,12093
1988,12094
2035,12095
2022,12096
2041,12097
2066,12098
2040,12099
1999,12100
2007,12101
2024,12102
1975,12103
2008,12104
1985,12105
1975,12106
1988,12107
1953,12108
1954,12109
1985,12110
1984,12111
1990,12112
1981,12113
2019,12114
2048,12115
2036,12116
2054,12117
2046,12118
2040,12119
2031,12120
2029,12121
2009,12122
2012,12123
2006,12124
1990,12125
2018,12126
1976,12127
2008,12128
2035,12129
2024,12130
2005,12131
2060,12132
2040,12133
2021,12134
2042,12135
2032,12136
2044,12137
2039,12138
2030,12139
2045,12140
2014,12141
1978,12142
2020,12143
1987,12144
1980,12145
2019,12146
1996,12147
1983,12148
1988,12149
1971,12150
2015,12151
1975,12152
2013,12153
2038,12154
2011,12155
2042,12156
2046,12157
2040,12158
2035,12159
2026,12160
1987,12161
1980,12162
1983,12163
1954,12164
1992,12165
1971,12166
1996,12167
1928,12168
1951,12169
2002,12170
1949,12171
1994,12172
2004,12173
1994,12174
2021,12175
2042,12176
2058,12177
2047,12178
2022,12179
2026,12180
2018,12181
2030,12182
2016,12183
1987,12184
2002,12185
2004,12186
1989,12187
1996,12188
2016,12189
1978,12190
2026,12191
2001,12192
2025,12193
1996,12194
2015,12195
1996,12196
2044,12197
2047,12198
2036,12199
2028,12200
1979,12201
2026,12202
2006,12203
1990,12204
1953,12205
1975,12206
1988,12207
1983,12208
1978,12209
2000,12210
1981,12211
2027,12212
2027,12213
2045,12214
2023,12215
2035,12216
2047,12217
2046,12218
2017,12219
2027,12220
2027,12221
2030,12222
