1972,2088
1989,2089
1931,2090
1937,2091
1905,2092
1899,2093
1911,2094
1909,2095
1904,2096
1926,2097
1914,2098
1934,2099
1942,2100
1988,2101
1932,2102
1937,2103
1936,2104
1954,2105
1962,2106
1987,2107
1953,2108
1952,2109
1981,2110
1942,2111
1966,2112
1923,2113
1883,2114
1879,2115
1907,2116
1913,2117
1887,2118
1895,2119
1901,2120
1887,2121
1901,2122
1900,2123
1908,2124
1924,2125
1954,2126
1961,2127
1904,2128
1949,2129
1955,2130
1920,2131
1951,2132
1909,2133
1912,2134
1917,2135
1895,2136
1932,2137
1908,2138
1946,2139
1952,2140
1968,2141
1952,2142
1935,2143
1947,2144
1991,2145
1946,2146
1931,2147
1962,2148
1991,2149
1927,2150
1944,2151
1934,2152
1908,2153
1899,2154
1900,2155
1885,2156
1896,2157
1922,2158
1928,2159
1955,2160
1959,2161
1953,2162
1936,2163
1961,2164
1934,2165
1971,2166
1981,2167
1972,2168
1939,2169
1948,2170
1967,2171
1916,2172
1884,2173
1868,2174
1888,2175
1870,2176
1945,2177
1914,2178
1945,2179
1904,2180
1875,2181
1921,2182
1923,2183
1964,2184
1967,2185
1941,2186
1982,2187
1982,2188
1978,2189
1927,2190
1920,2191
1917,2192
1949,2193
1911,2194
1918,2195
1903,2196
1939,2197
1917,2198
1904,2199
1906,2200
1927,2201
1942,2202
1931,2203
1947,2204
1960,2205
1957,2206
1944,2207
1954,2208
1955,2209
1922,2210
1936,2211
1947,2212
1926,2213
1944,2214
1906,2215
1909,2216
1905,2217
1878,2218
1941,2219
1922,2220
1940,2221
1953,2222
1965,2223
1955,2224
1980,2225
1925,2226
1954,2227
1962,2228
1954,2229
1948,2230
1947,2231
1927,2232
1926,2233
1904,2234
1895,2235
1928,2236
1943,2237
1936,2238
1901,2239
1937,2240
1895,2241
1943,2242
1952,2243
1944,2244
1936,2245
1965,2246
1955,2247
1971,2248
1943,2249
1951,2250
1917,2251
1892,2252
1901,2253
1897,2254
1916,2255
1907,2256
1896,2257
1927,2258
1922,2259
1959,2260
1960,2261
1953,2262
1933,2263
1936,2264
1944,2265
1978,2266
1961,2267
1950,2268
1918,2269
1937,2270
1955,2271
1964,2272
1922,2273
1917,2274
1930,2275
1918,2276
1935,2277
1935,2278
1896,2279
1893,2280
1931,2281
1927,2282
1908,2283
1947,2284
1913,2285
1974,2286
1974,2287
1962,2288
1924,2289
1950,2290
1953,2291
1954,2292
1931,2293
1925,2294
1914,2295
1939,2296
1929,2297
1900,2298
1912,2299
1914,2300
1956,2301
1929,2302
1962,2303
1915,2304
1974,2305
1939,2306
1929,2307
1949,2308
1955,2309
1955,2310
1958,2311
1893,2312
1960,2313
1893,2314
1919,2315
1893,2316
1904,2317
1935,2318
1892,2319
1904,2320
1932,2321
1968,2322
1931,2323
1964,2324
1947,2325
1992,2326
1946,2327
1979,2328
1959,2329
1983,2330
1966,2331
1942,2332
1956,2333
1912,2334
1921,2335
1925,2336
1933,2337
1938,2338
1958,2339
1968,2340
1944,2341
1954,2342
1923,2343
1940,2344
1906,2345
2002,2346
1963,2347
1983,2348
1948,2349
1954,2350
1906,2351
1932,2352
1891,2353
1899,2354
1910,2355
1911,2356
1935,2357
1933,2358
1915,2359
1950,2360
1942,2361
1936,2362
1959,2363
1971,2364
1961,2365
1982,2366
1960,2367
1944,2368
1948,2369
1951,2370
1916,2371
1919,2372
1921,2373
1911,2374
1890,2375
1891,2376
1906,2377
1904,2378
1866,2379
1954,2380
1911,2381
1949,2382
1921,2383
1930,2384
1968,2385
1954,2386
1952,2387
1923,2388
1960,2389
1923,2390
1949,2391
1900,2392
1938,2393
1951,2394
1950,2395
1921,2396
1887,2397
1879,2398
1911,2399
1920,2400
1923,2401
1934,2402
1932,2403
1911,2404
1920,2405
1937,2406
1945,2407
1958,2408
1941,2409
1964,2410
1933,2411
1925,2412
1896,2413
1924,2414
1928,2415
1885,2416
1916,2417
1878,2418
1923,2419
1909,2420
1934,2421
1935,2422
1939,2423
1934,2424
1949,2425
1925,2426
1962,2427
1950,2428
1953,2429
1952,2430
1938,2431
1910,2432
1934,2433
1907,2434
1941,2435
1918,2436
1934,2437
1940,2438
1935,2439
1943,2440
1958,2441
1955,2442
1955,2443
1905,2444
1956,2445
1919,2446
1952,2447
1974,2448
1955,2449
1958,2450
1922,2451
1943,2452
1904,2453
1928,2454
1926,2455
1932,2456
1921,2457
1934,2458
1858,2459
1940,2460
1919,2461
1914,2462
1948,2463
1933,2464
1931,2465
1962,2466
1968,2467
1944,2468
1928,2469
1902,2470
1967,2471
1916,2472
1908,2473
1906,2474
1925,2475
1930,2476
1889,2477
1905,2478
1922,2479
1920,2480
1936,2481
1974,2482
1944,2483
1942,2484
1925,2485
1946,2486
1958,2487
1978,2488
1939,2489
1947,2490
1929,2491
1920,2492
1917,2493
1915,2494
1903,2495
1912,2496
1900,2497
1937,2498
1911,2499
1898,2500
1934,2501
1946,2502
1957,2503
1987,2504
1939,2505
1989,2506
1988,2507
1992,2508
1956,2509
1948,2510
1964,2511
1941,2512
1928,2513
1916,2514
1916,2515
1910,2516
1917,2517
1867,2518
1921,2519
1918,2520
1920,2521
1928,2522
1903,2523
1940,2524
1944,2525
1948,2526
1959,2527
1979,2528
1899,2529
1936,2530
1915,2531
1921,2532
1907,2533
1898,2534
1896,2535
1905,2536
1897,2537
1931,2538
1927,2539
1915,2540
1912,2541
1965,2542
1972,2543
1962,2544
1973,2545
1973,2546
1978,2547
1950,2548
1975,2549
1934,2550
1980,2551
1950,2552
1919,2553
1920,2554
1973,2555
1911,2556
1916,2557
1881,2558
1932,2559
1908,2560
1944,2561
1952,2562
1960,2563
1969,2564
1982,2565
1978,2566
1976,2567
1955,2568
1978,2569
1988,2570
1950,2571
1916,2572
1927,2573
1876,2574
1889,2575
1853,2576
1901,2577
1898,2578
1907,2579
1880,2580
1923,2581
1917,2582
1922,2583
1932,2584
1937,2585
1949,2586
1971,2587
1962,2588
1927,2589
1961,2590
1972,2591
1928,2592
1909,2593
1859,2594
1902,2595
1896,2596
1857,2597
1876,2598
1899,2599
1935,2600
1914,2601
1919,2602
1957,2603
1981,2604
1971,2605
1983,2606
1982,2607
1927,2608
1990,2609
1941,2610
1927,2611
1933,2612
1937,2613
1964,2614
1907,2615
1891,2616
1926,2617
1919,2618
1928,2619
1889,2620
1907,2621
1951,2622
1972,2623
1952,2624
1926,2625
1985,2626
1984,2627
1959,2628
1987,2629
1970,2630
1967,2631
1934,2632
1909,2633
1920,2634
1937,2635
1909,2636
1886,2637
1938,2638
1923,2639
1952,2640
1960,2641
1935,2642
1974,2643
1968,2644
1978,2645
1951,2646
2007,2647
1985,2648
1988,2649
1963,2650
1959,2651
1900,2652
1901,2653
1912,2654
1924,2655
1929,2656
1896,2657
1922,2658
1935,2659
1940,2660
1929,2661
1927,2662
1926,2663
1975,2664
1980,2665
1984,2666
1996,2667
1963,2668
1955,2669
1943,2670
1897,2671
1918,2672
1910,2673
1916,2674
1924,2675
1870,2676
1883,2677
1899,2678
1905,2679
1928,2680
1895,2681
1935,2682
1920,2683
1948,2684
1973,2685
1983,2686
1973,2687
1974,2688
1951,2689
1942,2690
1950,2691
1926,2692
1921,2693
1897,2694
1911,2695
1926,2696
1901,2697
1898,2698
1923,2699
1876,2700
1908,2701
1954,2702
1923,2703
1935,2704
1960,2705
1999,2706
1968,2707
1990,2708
1956,2709
1962,2710
1920,2711
1917,2712
1921,2713
1890,2714
1916,2715
1922,2716
1886,2717
1923,2718
1906,2719
1919,2720
1938,2721
1931,2722
1964,2723
1964,2724
1987,2726
1984,2726
1997,2727
1981,2728
1936,2729
1918,2730
1935,2731
1901,2732
1911,2733
1909,2734
1903,2735
1905,2736
1892,2737
1920,2738
1903,2739
1934,2740
1898,2741
1949,2742
1933,2743
1982,2744
1955,2745
1949,2746
1973,2747
1965,2748
1986,2749
2000,2750
1940,2751
1968,2752
1907,2753
1918,2754
1920,2755
1914,2756
1924,2757
1922,2758
1900,2759
1884,2760
1893,2761
1964,2762
1940,2763
1980,2764
1975,2765
1989,2766
1954,2767
1983,2768
1985,2769
1925,2770
1911,2771
1925,2772
1920,2773
1906,2774
1915,2775
1911,2776
1896,2777
1911,2778
1912,2779
1913,2780
1920,2781
1964,2782
1922,2783
1955,2784
1977,2785
1975,2786
1946,2787
1953,2788
1916,2789
1922,2790
1923,2791
1927,2792
1911,2793
1930,2794
1902,2795
1894,2796
1907,2797
1951,2798
1900,2799
1927,2800
1951,2801
1950,2802
1972,2803
1983,2804
1972,2805
1948,2806
1995,2807
1950,2808
1960,2809
1980,2810
1937,2811
1976,2812
1938,2813
1927,2814
1924,2815
1929,2816
1924,2817
1897,2818
1901,2819
1975,2820
1968,2821
1954,2822
1958,2823
1969,2824
1971,2825
1966,2826
1986,2827
1967,2828
1980,2829
1961,2830
1998,2831
1948,2832
1920,2833
1909,2834
1900,2835
1895,2836
1886,2837
1900,2838
1921,2839
1941,2840
1942,2841
1909,2842
1932,2843
1953,2844
1952,2845
1950,2846
1982,2847
1947,2848
1984,2849
1933,2850
1928,2851
1896,2852
1907,2853
1880,2854
1910,2855
1918,2856
1900,2857
1906,2858
1939,2859
1944,2860
1922,2861
1957,2862
1946,2863
2002,2864
1976,2865
1942,2866
1948,2867
1947,2868
1954,2869
1922,2870
1926,2871
1924,2872
1932,2873
1898,2874
1923,2875
1915,2876
1925,2877
1941,2878
1929,2879
1959,2880
1951,2881
1959,2882
1962,2883
1984,2884
1992,2885
1973,2886
1988,2887
1970,2888
1935,2889
1926,2890
1926,2891
1894,2892
1925,2893
1893,2894
1904,2895
1889,2896
1888,2897
1901,2898
1928,2899
1936,2900
1981,2901
1937,2902
1983,2903
1933,2904
1951,2905
1945,2906
1950,2907
1980,2908
1928,2909
1960,2910
1928,2911
1921,2912
1919,2913
1912,2914
1910,2915
1918,2916
1908,2917
1896,2918
1943,2919
1917,2920
1935,2921
1980,2922
1958,2923
2002,2924
1999,2925
1999,2926
1991,2927
1972,2928
1937,2929
1948,2930
1935,2931
1919,2932
1904,2933
1941,2934
1940,2935
1918,2936
1896,2937
1899,2938
1911,2939
1923,2940
1894,2941
1941,2942
1956,2943
1978,2944
1964,2945
1975,2946
1996,2947
1953,2948
1956,2949
1966,2950
1949,2951
1920,2952
1957,2953
1938,2954
1895,2955
1916,2956
1897,2957
1907,2958
1913,2959
1902,2960
1933,2961
1939,2962
1930,2963
1966,2964
1953,2965
1938,2966
1966,2967
1978,2968
1961,2969
1939,2970
1983,2971
1952,2972
1950,2973
1914,2974
1907,2975
1936,2976
1896,2977
1930,2978
1920,2979
1936,2980
1946,2981
1966,2982
1968,2983
2001,2984
1978,2985
2002,2986
2005,2987
1986,2988
1981,2989
1956,2990
1955,2991
1937,2992
1925,2993
1887,2994
1906,2995
1889,2996
1896,2997
1875,2998
1875,2999
1900,3000
1904,3001
1929,3002
1944,3003
1923,3004
2008,3005
1983,3006
1968,3007
1951,3008
1985,3009
1977,3010
1922,3011
1968,3012
1906,3013
1889,3014
1923,3015
1898,3016
1873,3017
1910,3018
1910,3019
1939,3020
1926,3021
1956,3022
1950,3023
1949,3024
1960,3025
1966,3026
1930,3027
1950,3028
1922,3029
1905,3030
1925,3031
1900,3032
1922,3033
1911,3034
1884,3035
1910,3036
1889,3037
1931,3038
1937,3039
1932,3040
1928,3041
1952,3042
1966,3043
1941,3044
1986,3045
1959,3046
1980,3047
1964,3048
1990,3049
1965,3050
1995,3051
1935,3052
1969,3053
1941,3054
1933,3055
1916,3056
1915,3057
1927,3058
1915,3059
1912,3060
1924,3061
1900,3062
1975,3063
1937,3064
1972,3065
1973,3066
1982,3067
1989,3068
1964,3069
1967,3070
1981,3071
1943,3072
1955,3073
1911,3074
1902,3075
1884,3076
1910,3077
1903,3078
1907,3079
1888,3080
1914,3081
1948,3082
1951,3083
1964,3084
1967,3085
1980,3086
1983,3087
1955,3088
1963,3089
1929,3090
1934,3091
1914,3092
1919,3093
1913,3094
1915,3095
1894,3096
1916,3097
1895,3098
1904,3099
1922,3100
1977,3101
1961,3102
1957,3103
1966,3104
1966,3105
1967,3106
1959,3107
1938,3108
1939,3109
1940,3110
1971,3111
1930,3112
1953,3113
1885,3114
1941,3115
1904,3116
1901,3117
1929,3118
1929,3119
1920,3120
1948,3121
1935,3122
1962,3123
1974,3124
1987,3125
1972,3126
1946,3127
1968,3128
2023,3129
1915,3130
1946,3131
1943,3132
1943,3133
1907,3134
1900,3135
1924,3136
1945,3137
1928,3138
1916,3139
1920,3140
1909,3141
1958,3142
1953,3143
1958,3144
1977,3145
1984,3146
2004,3147
1983,3148
1949,3149
1943,3150
1947,3151
1968,3152
1924,3153
1925,3154
1916,3155
1909,3156
1944,3157
1935,3158
1914,3159
1966,3160
1933,3161
1953,3162
1954,3163
1951,3164
1984,3165
1936,3166
1894,3167
1935,3168
1965,3169
1954,3170
1924,3171
1921,3172
1932,3173
1886,3174
1902,3175
1909,3176
1912,3177
1916,3178
1957,3179
1947,3180
1928,3181
1958,3182
1998,3183
1980,3184
2020,3185
1958,3186
1977,3187
1972,3188
1969,3189
1987,3190
1944,3191
1927,3192
1906,3193
1896,3194
1928,3195
1903,3196
1907,3197
1918,3198
1934,3199
1955,3200
1917,3201
1917,3202
1927,3203
1962,3204
1923,3205
1967,3206
1989,3207
1983,3208
1951,3209
1934,3210
1935,3211
1930,3212
1927,3213
1900,3214
1946,3215
1907,3216
1922,3217
1965,3218
1921,3219
1912,3220
1923,3221
1959,3222
2014,3223
1971,3224
1992,3225
1996,3226
1984,3227
1957,3228
1960,3229
1944,3230
1938,3231
1939,3232
1955,3233
1909,3234
1893,3235
1899,3236
1912,3237
1879,3238
1900,3239
1897,3240
1912,3241
1967,3242
1973,3243
1975,3244
2000,3245
1966,3246
1966,3247
1970,3248
1928,3249
1922,3250
1935,3251
1937,3252
1924,3253
1923,3254
1879,3255
1894,3256
1900,3257
1900,3258
1958,3259
1914,3260
1980,3261
1957,3262
1967,3263
1984,3264
1990,3265
1982,3266
1967,3267
1975,3268
1934,3269
1961,3270
1938,3271
1944,3272
1931,3273
1929,3274
1920,3275
1880,3276
1891,3277
1905,3278
1881,3279
1923,3280
1950,3281
1930,3282
1955,3283
1962,3284
1954,3285
1974,3286
1944,3287
1952,3288
2000,3289
1946,3290
1937,3291
1916,3292
1919,3293
1912,3294
1919,3295
1934,3296
1926,3297
1937,3298
1959,3299
1962,3300
1985,3301
1978,3302
1994,3303
1976,3304
1960,3305
1939,3306
1955,3307
1956,3308
1941,3309
1915,3310
1922,3311
1897,3312
1939,3313
1904,3314
1936,3315
1931,3316
1927,3317
1948,3318
1926,3319
1952,3320
1927,3321
1936,3322
1960,3323
1954,3324
1990,3325
1981,3326
1961,3327
1980,3328
1976,3329
1919,3330
1923,3331
1910,3332
1882,3333
1849,3334
1862,3335
1874,3336
1878,3337
1912,3338
1909,3339
1924,3340
1945,3341
1937,3342
1943,3343
1972,3344
1951,3345
1981,3346
1938,3347
1965,3348
1972,3349
1950,3350
1907,3351
1918,3352
1938,3353
1900,3354
1902,3355
1924,3356
1912,3357
1921,3358
1944,3359
1966,3360
1954,3361
1930,3362
1956,3363
1994,3364
1980,3365
2001,3366
1994,3367
1985,3368
1968,3369
1952,3370
1952,3371
1929,3372
1921,3373
1902,3374
1876,3375
1932,3376
1935,3377
1924,3378
1928,3379
1914,3380
1928,3381
1930,3382
1958,3383
1969,3384
1976,3385
2001,3386
1976,3387
2000,3388
1951,3389
1951,3390
1937,3391
1908,3392
1879,3393
1893,3394
1891,3395
1902,3396
1927,3397
1944,3398
1948,3399
1953,3400
1936,3401
1968,3402
1974,3403
1969,3404
1946,3405
2000,3406
1994,3407
1960,3408
1958,3409
1964,3410
1960,3411
1910,3412
1927,3413
1902,3414
1930,3415
1898,3416
1907,3417
1922,3418
1916,3419
1948,3420
1896,3421
1896,3422
1924,3423
1959,3424
1952,3425
1979,3426
1976,3427
1914,3428
1947,3429
1949,3430
1915,3431
1941,3432
1886,3433
1889,3434
1890,3435
1915,3436
1915,3437
1903,3438
1951,3439
1944,3440
1955,3441
1948,3442
2005,3443
1941,3444
1973,3445
1952,3446
1950,3447
1964,3448
1981,3449
1929,3450
1935,3451
1931,3452
1936,3453
1896,3454
1933,3455
1879,3456
1935,3457
1894,3458
1904,3459
1912,3460
1897,3461
1920,3462
1955,3463
1948,3464
1981,3465
1993,3466
1959,3467
1990,3468
1961,3469
1923,3470
1901,3471
1919,3472
1943,3473
1952,3474
1936,3475
1969,3476
1928,3477
1906,3478
1972,3479
1966,3480
1957,3481
1929,3482
1995,3483
2002,3484
1999,3485
1972,3486
1983,3487
1918,3488
1911,3489
1920,3490
1936,3491
1878,3492
1902,3493
1899,3494
1903,3495
1897,3496
1887,3497
1904,3498
1930,3499
1928,3500
1967,3501
1915,3502
1980,3503
1985,3504
1998,3505
1981,3506
1982,3507
1964,3508
1953,3509
1947,3510
1942,3511
1896,3512
1921,3513
1917,3514
1908,3515
1908,3516
1890,3517
1884,3518
1927,3519
1929,3520
1964,3521
1967,3522
2011,3523
1984,3524
2021,3525
1971,3526
1952,3527
1963,3528
1959,3529
1916,3530
1917,3531
1934,3532
1929,3533
1922,3534
1904,3535
1900,3536
1896,3537
1905,3538
1938,3539
1899,3540
1911,3541
1945,3542
1947,3543
1932,3544
1965,3545
1960,3546
1984,3547
1976,3548
1969,3549
1934,3550
1919,3551
1918,3552
1925,3553
1918,3554
1885,3555
1910,3556
1903,3557
1918,3558
1936,3559
1960,3560
1934,3561
1969,3562
1964,3563
1996,3564
1955,3565
1948,3566
1949,3567
1962,3568
1948,3569
1972,3570
1936,3571
1941,3572
1910,3573
1906,3574
1874,3575
1913,3576
1920,3577
1932,3578
1946,3579
1943,3580
1976,3581
1969,3582
1999,3583
1994,3584
2019,3585
1998,3586
1983,3587
1968,3588
1963,3589
1955,3590
1935,3591
1940,3592
1899,3593
1897,3594
1899,3595
1929,3596
1908,3597
1919,3598
1925,3599
1917,3600
1945,3601
1964,3602
1969,3603
1981,3604
1986,3605
1979,3606
1967,3607
1957,3608
1975,3609
1942,3610
1931,3611
1916,3612
1921,3613
1883,3614
1889,3615
1909,3616
1890,3617
1884,3618
1950,3619
1927,3620
1943,3621
1947,3622
1978,3623
1986,3624
1976,3625
2000,3626
1984,3627
1979,3628
1939,3629
1927,3630
1923,3631
1938,3632
1932,3633
1913,3634
1882,3635
1923,3636
1937,3637
1956,3638
1959,3639
1956,3640
1943,3641
1925,3642
1986,3643
1989,3644
1977,3645
2007,3646
1981,3647
1991,3648
1924,3649
1919,3650
1907,3651
1908,3652
1920,3653
1890,3654
1874,3655
1909,3656
1899,3657
1931,3658
1907,3659
1948,3660
1913,3661
1964,3662
1942,3663
1973,3664
1979,3665
2011,3666
2010,3667
1984,3668
1961,3669
1960,3670
1900,3671
1948,3672
1925,3673
1874,3674
1916,3675
1898,3676
1903,3677
1899,3678
1930,3679
1948,3680
1945,3681
1952,3682
1978,3683
1977,3684
2008,3685
1988,3686
1972,3687
1981,3688
1938,3689
1922,3690
1894,3691
1897,3692
1908,3693
1893,3694
1924,3695
1902,3696
1908,3697
1933,3698
1920,3699
1948,3700
1960,3701
1962,3702
1989,3703
2006,3704
1962,3705
1966,3706
1977,3707
1983,3708
1943,3709
1940,3710
1922,3711
1936,3712
1901,3713
1938,3714
1883,3715
1921,3716
1892,3717
1934,3718
1936,3719
1961,3720
1939,3721
1992,3722
2001,3723
1991,3724
1952,3725
1944,3726
1972,3727
1949,3728
1962,3729
1953,3730
1920,3731
1897,3732
1905,3733
1904,3734
1882,3735
1895,3736
1912,3737
1929,3738
1927,3739
1942,3740
1935,3741
1947,3742
1987,3743
2000,3744
1965,3745
1991,3746
2022,3747
2015,3748
1927,3749
1927,3750
1885,3751
1931,3752
1880,3753
1870,3754
1904,3755
1909,3756
1904,3757
1927,3758
1919,3759
1930,3760
1944,3761
1934,3762
1942,3763
1986,3764
2002,3765
1997,3766
1975,3767
1959,3768
1945,3769
1943,3770
1928,3771
1891,3772
1920,3773
1937,3774
1924,3775
1944,3776
1944,3777
1976,3778
1945,3779
1921,3780
1950,3781
1968,3782
1943,3783
1970,3784
1938,3785
1976,3786
1948,3787
1967,3788
1984,3789
1936,3790
1901,3791
1902,3792
1931,3793
1940,3794
1963,3795
1947,3796
1930,3797
1924,3798
1911,3799
1915,3800
1915,3801
1963,3802
1977,3803
1976,3804
1949,3805
1951,3806
1956,3807
1957,3808
1918,3809
1942,3810
1955,3811
1923,3812
1928,3813
1923,3814
1880,3815
1920,3816
1922,3817
1929,3818
1944,3819
1984,3820
1994,3821
1988,3822
1997,3823
1988,3824
1975,3825
1952,3826
1946,3827
1956,3828
1968,3829
1919,3830
1953,3831
1927,3832
1926,3833
1879,3834
1864,3835
1905,3836
1904,3837
1905,3838
1965,3839
1948,3840
1957,3841
1946,3842
1935,3843
1957,3844
1994,3845
1935,3846
1946,3847
1965,3848
1940,3849
1943,3850
1943,3851
1949,3852
1942,3853
1908,3854
1922,3855
1951,3856
1967,3857
1941,3858
1953,3859
1966,3860
1960,3861
1969,3862
1957,3863
1984,3864
1932,3865
1976,3866
1967,3867
1962,3868
1923,3869
1915,3870
1931,3871
1902,3872
1940,3873
1979,3874
1979,3875
1953,3876
1946,3877
1908,3878
1903,3879
1971,3880
1929,3881
1960,3882
1963,3883
1913,3884
1915,3885
1944,3886
1905,3887
1914,3888
1986,3889
1887,3890
1947,3891
1936,3892
1898,3893
1885,3894
1912,3895
1917,3896
1899,3897
1910,3898
1904,3899
1937,3900
1989,3901
1959,3902
1940,3903
1976,3904
2007,3905
1947,3906
1991,3907
1964,3908
1933,3909
1914,3910
1907,3911
1902,3912
1915,3913
1857,3914
1913,3915
1926,3916
1930,3917
1898,3918
1988,3919
1977,3920
1982,3921
1996,3922
1983,3923
1989,3924
1964,3925
1985,3926
1983,3927
1990,3928
1962,3929
1968,3930
1968,3931
1961,3932
1971,3933
1935,3934
1938,3935
1913,3936
1912,3937
1957,3938
1968,3939
1941,3940
1955,3941
1945,3942
1992,3943
2000,3944
1985,3945
1963,3946
1945,3947
1958,3948
1936,3949
1905,3950
1907,3951
1895,3952
1878,3953
1895,3954
1886,3955
1900,3956
1906,3957
1909,3958
1949,3959
1963,3960
1948,3961
1943,3962
1978,3963
1984,3964
1967,3965
1930,3966
1969,3967
1965,3968
1972,3969
1953,3970
1940,3971
1931,3972
1981,3973
1923,3974
1913,3975
1916,3976
1934,3977
1909,3978
1937,3979
1884,3980
1900,3981
1904,3982
1956,3983
1983,3984
2009,3985
2009,3986
1996,3987
2005,3988
1974,3989
1952,3990
1927,3991
1953,3992
1943,3993
1900,3994
1920,3995
1929,3996
1933,3997
1941,3998
1920,3999
1968,4000
1979,4001
1983,4002
2014,4003
2016,4004
1995,4005
1968,4006
1971,4007
1943,4008
1919,4009
1931,4010
1892,4011
1863,4012
1892,4013
1866,4014
1883,4015
1872,4016
1920,4017
1935,4018
1944,4019
1989,4020
2009,4021
1986,4022
1972,4023
1992,4024
2002,4025
1983,4026
1944,4027
1936,4028
1920,4029
1904,4030
1882,4031
1882,4032
1879,4033
1884,4034
1907,4035
1907,4036
1931,4037
1940,4038
1948,4039
1961,4040
1972,4041
2016,4042
1974,4043
2021,4044
1995,4045
1985,4046
2009,4047
1974,4048
1978,4049
1953,4050
1956,4051
1978,4052
1962,4053
2011,4054
1992,4055
1982,4056
1966,4057
1951,4058
1943,4059
1940,4060
1944,4061
1947,4062
1916,4063
1940,4064
1925,4065
1951,4066
1996,4067
1937,4068
1911,4069
1883,4070
1913,4071
1880,4072
1868,4073
1873,4074
1921,4075
1902,4076
1923,4077
1931,4078
1940,4079
1924,4080
1931,4081
1947,4082
1961,4083
1975,4084
1952,4085
1964,4086
1954,4087
1934,4088
1922,4089
1937,4090
1931,4091
1959,4092
1931,4093
1908,4094
1933,4095
1919,4096
1930,4097
1954,4098
1929,4099
1923,4100
1959,4101
1991,4102
2006,4103
1982,4104
1988,4105
1959,4106
1930,4107
1955,4108
1975,4109
1921,4110
1931,4111
1947,4112
1977,4113
1962,4114
1968,4115
2008,4116
1977,4117
2017,4118
1996,4119
2042,4120
1987,4121
1998,4122
2011,4123
1975,4124
1968,4125
1915,4126
1916,4127
1907,4128
1912,4129
1870,4130
1841,4131
1852,4132
1900,4133
1891,4134
1875,4135
1920,4136
1900,4137
1938,4138
1939,4139
1973,4140
1970,4141
1954,4142
2009,4143
1997,4144
2002,4145
2006,4146
1976,4147
1983,4148
1926,4149
1916,4150
1925,4151
1903,4152
1909,4153
1880,4154
1928,4155
1903,4156
1869,4157
1892,4158
1903,4159
1941,4160
1956,4161
1942,4162
1971,4163
1997,4164
1958,4165
1962,4166
2005,4167
2000,4168
2002,4169
2001,4170
1998,4171
1956,4172
1949,4173
1948,4174
1963,4175
1955,4176
1923,4177
1920,4178
1871,4179
1943,4180
1958,4181
1986,4182
1969,4183
2006,4184
1986,4185
1976,4186
1915,4187
1922,4188
1940,4189
1898,4190
1863,4191
1902,4192
1920,4193
1909,4194
1921,4195
1931,4196
1948,4197
1947,4198
1947,4199
1971,4200
1939,4201
1958,4202
2013,4203
1981,4204
2019,4205
2003,4206
1974,4207
1972,4208
1943,4209
1900,4210
1894,4211
1917,4212
1899,4213
1888,4214
1882,4215
1893,4216
1920,4217
1886,4218
1950,4219
1969,4220
1933,4221
1962,4222
1977,4223
2014,4224
2027,4225
1991,4226
2013,4227
1958,4228
1963,4229
1944,4230
1926,4231
1944,4232
1904,4233
1890,4234
1949,4235
1910,4236
1901,4237
1941,4238
1973,4239
1958,4240
1975,4241
1967,4242
1979,4243
1999,4244
1987,4245
2007,4246
1969,4247
1973,4248
1975,4249
1958,4250
1959,4251
1950,4252
1968,4253
1931,4254
1968,4255
1952,4256
1935,4257
1952,4258
1893,4259
1887,4260
1916,4261
1924,4262
1910,4263
1939,4264
1949,4265
1968,4266
1921,4267
1978,4268
1923,4269
1939,4270
1923,4271
1964,4272
1994,4273
1940,4274
1952,4275
1977,4276
2002,4277
2004,4278
1983,4279
1984,4280
1951,4281
1931,4282
1916,4283
1930,4284
1990,4285
1991,4286
1950,4287
1948,4288
1983,4289
1986,4290
1984,4291
1987,4292
2013,4293
1995,4294
1990,4295
2001,4296
1980,4297
1951,4298
1956,4299
1936,4300
1928,4301
1928,4302
1931,4303
1911,4304
1906,4305
1939,4306
1972,4307
1983,4308
1982,4309
1992,4310
1952,4311
1954,4312
1939,4313
1958,4314
1926,4315
1875,4316
1914,4317
1995,4318
1988,4319
2041,4320
2039,4321
2049,4322
2028,4323
2031,4324
1986,4325
1945,4326
1964,4327
1943,4328
1874,4329
1829,4330
1844,4331
1887,4332
1917,4333
1917,4334
1944,4335
1958,4336
1988,4337
2014,4338
2015,4339
2007,4340
1998,4341
1985,4342
1997,4343
1983,4344
2034,4345
1989,4346
1943,4347
1955,4348
1951,4349
1927,4350
1905,4351
1911,4352
1872,4353
1897,4354
1911,4355
1919,4356
1922,4357
1996,4358
1951,4359
1993,4360
1962,4361
1974,4362
2036,4363
2008,4364
2047,4365
2016,4366
1987,4367
1993,4368
1964,4369
1917,4370
1926,4371
1899,4372
1888,4373
1897,4374
1868,4375
1913,4376
1930,4377
1937,4378
1959,4379
1992,4380
2023,4381
2008,4382
2048,4383
2029,4384
2019,4385
2005,4386
1967,4387
1997,4388
1959,4389
1940,4390
1895,4391
1877,4392
1911,4393
1911,4394
1982,4395
1949,4396
1920,4397
1966,4398
1960,4399
2038,4400
2006,4401
2042,4402
2053,4403
2061,4404
2061,4405
2028,4406
1996,4407
1992,4408
1955,4409
1954,4410
1952,4411
1918,4412
1892,4413
1924,4414
1952,4415
1999,4416
1976,4417
1968,4418
1988,4419
1898,4420
1915,4421
1896,4422
1920,4423
1940,4424
1957,4425
1931,4426
1924,4427
1939,4428
1946,4429
2012,4430
2056,4431
2050,4432
2020,4433
2029,4434
2010,4435
1956,4436
1925,4437
1928,4438
1952,4439
1924,4440
1906,4441
1898,4442
1931,4443
1955,4444
1948,4445
1998,4446
2049,4447
2083,4448
2044,4449
2012,4450
1965,4451
1943,4452
1939,4453
1932,4454
1880,4455
1856,4456
1883,4457
1907,4458
1919,4459
1880,4460
1908,4461
1890,4462
1935,4463
1966,4464
1952,4465
1986,4466
1961,4467
1987,4468
1959,4469
1905,4470
1921,4471
1891,4472
1955,4473
2016,4474
2016,4475
2021,4476
1992,4477
1938,4478
1950,4479
1935,4480
1922,4481
1912,4482
1912,4483
1894,4484
1927,4485
1889,4486
1903,4487
1899,4488
1896,4489
1891,4490
1881,4491
1972,4492
1965,4493
1954,4494
1975,4495
1994,4496
1948,4497
1931,4498
1926,4499
1890,4500
1893,4501
1905,4502
1879,4503
1956,4504
1966,4505
2005,4506
2034,4507
2070,4508
2076,4509
2104,4510
2116,4511
2049,4512
2038,4513
1967,4514
1981,4515
2038,4516
2009,4517
1975,4518
1856,4519
1847,4520
1830,4521
1873,4522
1909,4523
1918,4524
1930,4525
1941,4526
1938,4527
1894,4528
1910,4529
1925,4530
1921,4531
2013,4532
2137,4533
2227,4534
2156,4535
2181,4536
2159,4537
2183,4538
2268,4539
2256,4540
2165,4541
2031,4542
1955,4543
1831,4544
1782,4545
1742,4546
1654,4547
1619,4548
1640,4549
1726,4550
1832,4551
1944,4552
1971,4553
1927,4554
1912,4555
1907,4556
1858,4557
1827,4558
1839,4559
1877,4560
1880,4561
1930,4562
1996,4563
2057,4564
2009,4565
1999,4566
1976,4567
1951,4568
1882,4569
1826,4570
1839,4571
1835,4572
1880,4573
1877,4574
1923,4575
1888,4576
1860,4577
1834,4578
1865,4579
1820,4580
1880,4581
1872,4582
1901,4583
1897,4584
1891,4585
1880,4586
1943,4587
1899,4588
1891,4589
1943,4590
1952,4591
1919,4592
1912,4593
1958,4594
1935,4595
2008,4596
2041,4597
2109,4598
2110,4599
2066,4600
1985,4601
1995,4602
1935,4603
1910,4604
1847,4605
1820,4606
1774,4607
1759,4608
1833,4609
1970,4610
2021,4611
1999,4612
1985,4613
1934,4614
1881,4615
1872,4616
1861,4617
1877,4618
1965,4619
1924,4620
1897,4621
1883,4622
1890,4623
1888,4624
1905,4625
1845,4626
1860,4627
1910,4628
1901,4629
1968,4630
1981,4631
1960,4632
1923,4633
1881,4634
1873,4635
1843,4636
1865,4637
1905,4638
1901,4639
1916,4640
1926,4641
1856,4642
1911,4643
1958,4644
1973,4645
2021,4646
2091,4647
2111,4648
2183,4649
2135,4650
2065,4651
1996,4652
1901,4653
1844,4654
1859,4655
1861,4656
1948,4657
2016,4658
1962,4659
1942,4660
1923,4661
1959,4662
1919,4663
1848,4664
1780,4665
1781,4666
1773,4667
1738,4668
1749,4669
1727,4670
1802,4671
1844,4672
1900,4673
1959,4674
2026,4675
2126,4676
2144,4677
2143,4678
2063,4679
2000,4680
1925,4681
1852,4682
1766,4683
1731,4684
1667,4685
1670,4686
1746,4687
1819,4688
1864,4689
1883,4690
1955,4691
1979,4692
1931,4693
1905,4694
1932,4695
2043,4696
2171,4697
2203,4698
2165,4699
2023,4700
1904,4701
1861,4702
1874,4703
1861,4704
1824,4705
1820,4706
1806,4707
1868,4708
1962,4709
1971,4710
1985,4711
2002,4712
1981,4713
2017,4714
2032,4715
1944,4716
1910,4717
1823,4718
1786,4719
1816,4720
1813,4721
1825,4722
1809,4723
1795,4724
1892,4725
1883,4726
1919,4727
1894,4728
1887,4729
1808,4730
1815,4731
1825,4732
1874,4733
1884,4734
1907,4735
1937,4736
1937,4737
1883,4738
1871,4739
1884,4740
1916,4741
2040,4742
2043,4743
1981,4744
2015,4745
1984,4746
1983,4747
1942,4748
2012,4749
1918,4750
1831,4751
1817,4752
1816,4753
1761,4754
1781,4755
1780,4756
1849,4757
1863,4758
1918,4759
1901,4760
1882,4761
1862,4762
1856,4763
1878,4764
1843,4765
1816,4766
1787,4767
1847,4768
1928,4769
1870,4770
1894,4771
1925,4772
1937,4773
1920,4774
1975,4775
2019,4776
2002,4777
1998,4778
2025,4779
1994,4780
1969,4781
1936,4782
1907,4783
1955,4784
1944,4785
2017,4786
2136,4787
2152,4788
2049,4789
1921,4790
1852,4791
1852,4792
1777,4793
1775,4794
1725,4795
1689,4796
1675,4797
1672,4798
1700,4799
1781,4800
1800,4801
1882,4802
2006,4803
2011,4804
1970,4805
1952,4806
1939,4807
1905,4808
1895,4809
1868,4810
1901,4811
1962,4812
1971,4813
2013,4814
1999,4815
2057,4816
2077,4817
2119,4818
2205,4819
2139,4820
2077,4821
1986,4822
1936,4823
1844,4824
1778,4825
1719,4826
1654,4827
1667,4828
1740,4829
1810,4830
1818,4831
1872,4832
1904,4833
1972,4834
1949,4835
1949,4836
1914,4837
1940,4838
1938,4839
1952,4840
1931,4841
2014,4842
2095,4843
2194,4844
2237,4845
2215,4846
2038,4847
1929,4848
1875,4849
1810,4850
1742,4851
1634,4852
1588,4853
1633,4854
1657,4855
1655,4856
1734,4857
1768,4858
2014,4859
2162,4860
2194,4861
2172,4862
2079,4863
1977,4864
1851,4865
1863,4866
1923,4867
2003,4868
2145,4869
2187,4870
2176,4871
2119,4872
2085,4873
1984,4874
1908,4875
1771,4876
1644,4877
1628,4878
1697,4879
1655,4880
1681,4881
1755,4882
1783,4883
1850,4884
1890,4885
1999,4886
2056,4887
2068,4888
1986,4889
1898,4890
1867,4891
1830,4892
1867,4893
1824,4894
1825,4895
1812,4896
1789,4897
1790,4898
1794,4899
1794,4900
1765,4901
1771,4902
1737,4903
1781,4904
1759,4905
1833,4906
1896,4907
1965,4908
1944,4909
1937,4910
1923,4911
1904,4912
1914,4913
1887,4914
1825,4915
1861,4916
1867,4917
1866,4918
1836,4919
1849,4920
1852,4921
1886,4922
1905,4923
1909,4924
1988,4925
2081,4926
2209,4927
2195,4928
2112,4929
1990,4930
1966,4931
1913,4932
1927,4933
2033,4934
2131,4935
2160,4936
2150,4937
2061,4938
1993,4939
1918,4940
1769,4941
1674,4942
1671,4943
1687,4944
1754,4945
1991,4946
2162,4947
2143,4948
2049,4949
1928,4950
1833,4951
1735,4952
1677,4953
1636,4954
1719,4955
1939,4956
2147,4957
2127,4958
2126,4959
2106,4960
2054,4961
1930,4962
1823,4963
1722,4964
1670,4965
1627,4966
1687,4967
1851,4968
1917,4969
2011,4970
2068,4971
2044,4972
1981,4973
1903,4974
1758,4975
1701,4976
1648,4977
1630,4978
1602,4979
1619,4980
1618,4981
1715,4982
1898,4983
2096,4984
2130,4985
2083,4986
2115,4987
2123,4988
1993,4989
1843,4990
1764,4991
1704,4992
1664,4993
1684,4994
1699,4995
1740,4996
1767,4997
1833,4998
1920,4999
1982,5000
2070,5001
2189,5002
2183,5003
2155,5004
2133,5005
2049,5006
1890,5007
1843,5008
1717,5009
1630,5010
1553,5011
1577,5012
1655,5013
1730,5014
1776,5015
1825,5016
1800,5017
1794,5018
1862,5019
1867,5020
1927,5021
2021,5022
2194,5023
2228,5024
2289,5025
2284,5026
2216,5027
2111,5028
1951,5029
1771,5030
1640,5031
1622,5032
1685,5033
1671,5034
1627,5035
1667,5036
1683,5037
1753,5038
1801,5039
1902,5040
1959,5041
1991,5042
2097,5043
2260,5044
2323,5045
2223,5046
2167,5047
2069,5048
1951,5049
1813,5050
1761,5051
1770,5052
1718,5053
1755,5054
1689,5055
1679,5056
1650,5057
1666,5058
1739,5059
1768,5060
1910,5061
1983,5062
2019,5063
2112,5064
2173,5065
2137,5066
2189,5067
2184,5068
2122,5069
1979,5070
1974,5071
1939,5072
1807,5073
1704,5074
1621,5075
1592,5076
1581,5077
1634,5078
1656,5079
1824,5080
2057,5081
2198,5082
2170,5083
2107,5084
2007,5085
1952,5086
1834,5087
1739,5088
1573,5089
1561,5090
1584,5091
1655,5092
1709,5093
1744,5094
1802,5095
1895,5096
1976,5097
2000,5098
2051,5099
2007,5100
2022,5101
1985,5102
1947,5103
1936,5104
1882,5105
1899,5106
1991,5107
2032,5108
1984,5109
1894,5110
1847,5111
1795,5112
1667,5113
1648,5114
1718,5115
1836,5116
1873,5117
1844,5118
1834,5119
1810,5120
1815,5121
1828,5122
1830,5123
1807,5124
1781,5125
1831,5126
1831,5127
1856,5128
1838,5129
1898,5130
1922,5131
1889,5132
1897,5133
1903,5134
1939,5135
2003,5136
1951,5137
1976,5138
1999,5139
2052,5140
2099,5141
2033,5142
2023,5143
1997,5144
1945,5145
1881,5146
1807,5147
1752,5148
1754,5149
1807,5150
1842,5151
1865,5152
1854,5153
1825,5154
1825,5155
1848,5156
1814,5157
1770,5158
1812,5159
1877,5160
1897,5161
1871,5162
1964,5163
2013,5164
2012,5165
2055,5166
2056,5167
2047,5168
1924,5169
1841,5170
1746,5171
1716,5172
1784,5173
1751,5174
1746,5175
1827,5176
1891,5177
1920,5178
1887,5179
1812,5180
1802,5181
1757,5182
1699,5183
1776,5184
1783,5185
1768,5186
1784,5187
1812,5188
1896,5189
1950,5190
2116,5191
2132,5192
2087,5193
1928,5194
1840,5195
1758,5196
1678,5197
1671,5198
1675,5199
1702,5200
1796,5201
1872,5202
1902,5203
1972,5204
1989,5205
2064,5206
2142,5207
2214,5208
2245,5209
2174,5210
2068,5211
1930,5212
1797,5213
1703,5214
1619,5215
1604,5216
1586,5217
1587,5218
1653,5219
1705,5220
1784,5221
1800,5222
1809,5223
1810,5224
1827,5225
1876,5226
1961,5227
1998,5228
1983,5229
1962,5230
1910,5231
1885,5232
1831,5233
1905,5234
1977,5235
1986,5236
1944,5237
2086,5238
2116,5239
2083,5240
2002,5241
1952,5242
1858,5243
1821,5244
1851,5245
1831,5246
1910,5247
2004,5248
2082,5249
2032,5250
1977,5251
1916,5252
1895,5253
1807,5254
1860,5255
2059,5256
2175,5257
2241,5258
2191,5259
2092,5260
2010,5261
1803,5262
1679,5263
1549,5264
1479,5265
1493,5266
1637,5267
1691,5268
1775,5269
1757,5270
1882,5271
1950,5272
1962,5273
2002,5274
2145,5275
2163,5276
2088,5277
1986,5278
1866,5279
1765,5280
1746,5281
1790,5282
1797,5283
1787,5284
1895,5285
1997,5286
1993,5287
1983,5288
1932,5289
1886,5290
1833,5291
1832,5292
1830,5293
1883,5294
1868,5295
1921,5296
1935,5297
1935,5298
1918,5299
1864,5300
1826,5301
1880,5302
1956,5303
1922,5304
1924,5305
1886,5306
1831,5307
1864,5308
1907,5309
2121,5310
2253,5311
2254,5312
2194,5313
2120,5314
2024,5315
1843,5316
1804,5317
1661,5318
1640,5319
1664,5320
1670,5321
1765,5322
1745,5323
1728,5324
1747,5325
1791,5326
1920,5327
1871,5328
1938,5329
1975,5330
1981,5331
1943,5332
1920,5333
1961,5334
1999,5335
2033,5336
2023,5337
1916,5338
1837,5339
1798,5340
1738,5341
1755,5342
1728,5343
1730,5344
1805,5345
1844,5346
1908,5347
2108,5348
2301,5349
2519,5350
2502,5351
2345,5352
2189,5353
2105,5354
1964,5355
1913,5356
1949,5357
2072,5358
1988,5359
1897,5360
1798,5361
1701,5362
1553,5363
1496,5364
1443,5365
1544,5366
1644,5367
1833,5368
1950,5369
2104,5370
2253,5371
2259,5372
2073,5373
1978,5374
1866,5375
1762,5376
1700,5377
1824,5378
1974,5379
1968,5380
1884,5381
1862,5382
1840,5383
1830,5384
1839,5385
1824,5386
1848,5387
1816,5388
1809,5389
1781,5390
1798,5391
1791,5392
1751,5393
1867,5394
1807,5395
1956,5396
2088,5397
2115,5398
2195,5399
2251,5400
2191,5401
2101,5402
1988,5403
1856,5404
1655,5405
1533,5406
1468,5407
1608,5408
1620,5409
1634,5410
1659,5411
1683,5412
1715,5413
1833,5414
1915,5415
2005,5416
2056,5417
2048,5418
1985,5419
1961,5420
1974,5421
2001,5422
2052,5423
2094,5424
2027,5425
2011,5426
1989,5427
2032,5428
2052,5429
2004,5430
1942,5431
1905,5432
1890,5433
1944,5434
2095,5435
2192,5436
2140,5437
2102,5438
2010,5439
1865,5440
1765,5441
1608,5442
1613,5443
1805,5444
1924,5445
1890,5446
1880,5447
1877,5448
1881,5449
1888,5450
1810,5451
1815,5452
2192,5453
2660,5454
2754,5455
2622,5456
2371,5457
2112,5458
1761,5459
1571,5460
1351,5461
1165,5462
1248,5463
1359,5464
1514,5465
1665,5466
1790,5467
1826,5468
1856,5469
1887,5470
1895,5471
1885,5472
1848,5473
1769,5474
1788,5475
1780,5476
1712,5477
1688,5478
1754,5479
1793,5480
1831,5481
1869,5482
1865,5483
1891,5484
1986,5485
2000,5486
2056,5487
2128,5488
2168,5489
2154,5490
2003,5491
1920,5492
1830,5493
1681,5494
1639,5495
1614,5496
1576,5497
1620,5498
1685,5499
1789,5500
1859,5501
1956,5502
2303,5503
2695,5504
2832,5505
2812,5506
2629,5507
2309,5508
2005,5509
1714,5510
1414,5511
1196,5512
1177,5513
1283,5514
1485,5515
1728,5516
1792,5517
1816,5518
1878,5519
2011,5520
2071,5521
2128,5522
2090,5523
2129,5524
2125,5525
2015,5526
1968,5527
2144,5528
2229,5529
2258,5530
2220,5531
2074,5532
1887,5533
1731,5534
1584,5535
1517,5536
1523,5537
1558,5538
1646,5539
1660,5540
1710,5541
1703,5542
1724,5543
1685,5544
1735,5545
1780,5546
1912,5547
2166,5548
2346,5549
2302,5550
2191,5551
2033,5552
1929,5553
1801,5554
1714,5555
1634,5556
1531,5557
1552,5558
1601,5559
1730,5560
1991,5561
2153,5562
2142,5563
2118,5564
2078,5565
2000,5566
1822,5567
1757,5568
1737,5569
1768,5570
1756,5571
1728,5572
1778,5573
1765,5574
1773,5575
1824,5576
1925,5577
1902,5578
1935,5579
1943,5580
1935,5581
1917,5582
1920,5583
1859,5584
1870,5585
1785,5586
1865,5587
1911,5588
2106,5589
2259,5590
2387,5591
2385,5592
2311,5593
2220,5594
1960,5595
1829,5596
1649,5597
1591,5598
1491,5599
1447,5600
1416,5601
1459,5602
1501,5603
1562,5604
1706,5605
1853,5606
1991,5607
2190,5608
2213,5609
2199,5610
2053,5611
1960,5612
2030,5613
2048,5614
2048,5615
2009,5616
1988,5617
1941,5618
1859,5619
1799,5620
1770,5621
1807,5622
1780,5623
1752,5624
1757,5625
1722,5626
1698,5627
1691,5628
1745,5629
1952,5630
2067,5631
2145,5632
2323,5633
2591,5634
2633,5635
2544,5636
2195,5637
1939,5638
1682,5639
1439,5640
1249,5641
1262,5642
1367,5643
1543,5644
1683,5645
1702,5646
1772,5647
1850,5648
2039,5649
2079,5650
2040,5651
2132,5652
2347,5653
2390,5654
2368,5655
2285,5656
2121,5657
1839,5658
1596,5659
1424,5660
1283,5661
1282,5662
1289,5663
1349,5664
1520,5665
1619,5666
1666,5667
1734,5668
1789,5669
1826,5670
1948,5671
1923,5672
1952,5673
1935,5674
1867,5675
1874,5676
1807,5677
1739,5678
1795,5679
1925,5680
1920,5681
2028,5682
1996,5683
2070,5684
2008,5685
2002,5686
1977,5687
2006,5688
2071,5689
2026,5690
1908,5691
1771,5692
1671,5693
1689,5694
1862,5695
1992,5696
2050,5697
2057,5698
2048,5699
1975,5700
1849,5701
1922,5702
1964,5703
2038,5704
1984,5705
1903,5706
1813,5707
1673,5708
1601,5709
1527,5710
1595,5711
1896,5712
2176,5713
2308,5714
2236,5715
2104,5716
1995,5717
1884,5718
1800,5719
1677,5720
1602,5721
1700,5722
1767,5723
1726,5724
1688,5725
1633,5726
1633,5727
1645,5728
1810,5729
1897,5730
1972,5731
1979,5732
1956,5733
1891,5734
1779,5735
1681,5736
1638,5737
1591,5738
1611,5739
1725,5740
1952,5741
2112,5742
2232,5743
2223,5744
2144,5745
2051,5746
1879,5747
1809,5748
1782,5749
1697,5750
1584,5751
1585,5752
1631,5753
1725,5754
1755,5755
1724,5756
1719,5757
1748,5758
1767,5759
1803,5760
1879,5761
1953,5762
1956,5763
1927,5764
1863,5765
1825,5766
1761,5767
1724,5768
1748,5769
1877,5770
2129,5771
2317,5772
2292,5773
2232,5774
2073,5775
2011,5776
1896,5777
1894,5778
1927,5779
1953,5780
1855,5781
1800,5782
1736,5783
1657,5784
1607,5785
1577,5786
1578,5787
1634,5788
1633,5789
1640,5790
1707,5791
1793,5792
1871,5793
1958,5794
2030,5795
2217,5796
2525,5797
2605,5798
2484,5799
2330,5800
2105,5801
1839,5802
1645,5803
1496,5804
1271,5805
1185,5806
1248,5807
1352,5808
1419,5809
1560,5810
1730,5811
2065,5812
2203,5813
2185,5814
2148,5815
2029,5816
1913,5817
1770,5818
1764,5819
1679,5820
1582,5821
1647,5822
1637,5823
1715,5824
1796,5825
1991,5826
2176,5827
2209,5828
2194,5829
2133,5830
2080,5831
2083,5832
2110,5833
2044,5834
1904,5835
1780,5836
1725,5837
1561,5838
1447,5839
1332,5840
1333,5841
1461,5842
1577,5843
1663,5844
1711,5845
1801,5846
1839,5847
1775,5848
1805,5849
1823,5850
1798,5851
1811,5852
1824,5853
1788,5854
1771,5855
1794,5856
1788,5857
1807,5858
1823,5859
1836,5860
1837,5861
1901,5862
2000,5863
2043,5864
2076,5865
2116,5866
2014,5867
1911,5868
1758,5869
1700,5870
1508,5871
1500,5872
1583,5873
1660,5874
1693,5875
1867,5876
1899,5877
1910,5878
1869,5879
2008,5880
2180,5881
2259,5882
2295,5883
2271,5884
2275,5885
2228,5886
2000,5887
1748,5888
1748,5889
1695,5890
1712,5891
1743,5892
1663,5893
1640,5894
1669,5895
1732,5896
1808,5897
1824,5898
1971,5899
1958,5900
1976,5901
1908,5902
1816,5903
1739,5904
1606,5905
1560,5906
1612,5907
1613,5908
1640,5909
1702,5910
1698,5911
1638,5912
1628,5913
1802,5914
1990,5915
1996,5916
1986,5917
2040,5918
1940,5919
1836,5920
1832,5921
1800,5922
1809,5923
1852,5924
1795,5925
1723,5926
1767,5927
1832,5928
1770,5929
1777,5930
1795,5931
1839,5932
1931,5933
1905,5934
1943,5935
1981,5936
1967,5937
1844,5938
1735,5939
1680,5940
1573,5941
1664,5942
1700,5943
1716,5944
1720,5945
1770,5946
1798,5947
1844,5948
1820,5949
1822,5950
1804,5951
1766,5952
1762,5953
1832,5954
1901,5955
1987,5956
1956,5957
1963,5958
1893,5959
1808,5960
1764,5961
1751,5962
1725,5963
1721,5964
1717,5965
1763,5966
1759,5967
1760,5968
1761,5969
1778,5970
1840,5971
1833,5972
1920,5973
2078,5974
2267,5975
2333,5976
2233,5977
2136,5978
2097,5979
2101,5980
2075,5981
2011,5982
1904,5983
1822,5984
1717,5985
1622,5986
1601,5987
1601,5988
1499,5989
1486,5990
1479,5991
1552,5992
1615,5993
1672,5994
1739,5995
1838,5996
1879,5997
1900,5998
1888,5999
1891,6000
1919,6001
1895,6002
1847,6003
1856,6004
1790,6005
1752,6006
1670,6007
1666,6008
1703,6009
1795,6010
1880,6011
1864,6012
1828,6013
1838,6014
1840,6015
1843,6016
1866,6017
1971,6018
1995,6019
1921,6020
1871,6021
1839,6022
1840,6023
1859,6024
1806,6025
1736,6026
1807,6027
1837,6028
1860,6029
1869,6030
1841,6031
1800,6032
1818,6033
1757,6034
1727,6035
1759,6036
1735,6037
1757,6038
1821,6039
1895,6040
1944,6041
1997,6042
1961,6043
1897,6044
1824,6045
1761,6046
1723,6047
1800,6048
1778,6049
1795,6050
1857,6051
1826,6052
1784,6053
1843,6054
1825,6055
1864,6056
1945,6057
2048,6058
2100,6059
2147,6060
2165,6061
2070,6062
2067,6063
2289,6064
2293,6065
2151,6066
2010,6067
1929,6068
1823,6069
1740,6070
1655,6071
1516,6072
1557,6073
1576,6074
1667,6075
1683,6076
1631,6077
1651,6078
1674,6079
1672,6080
1707,6081
1795,6082
1943,6083
2024,6084
2132,6085
2140,6086
2113,6087
2113,6088
2111,6089
2079,6090
1931,6091
1821,6092
1723,6093
1667,6094
1603,6095
1581,6096
1525,6097
1574,6098
1608,6099
1704,6100
1751,6101
1746,6102
1745,6103
1794,6104
1798,6105
1776,6106
1801,6107
1823,6108
1846,6109
1835,6110
1875,6111
1860,6112
1856,6113
1857,6114
1824,6115
1787,6116
1852,6117
1887,6118
1953,6119
1976,6120
1959,6121
1902,6122
1815,6123
1786,6124
1752,6125
1693,6126
1712,6127
1679,6128
1654,6129
1692,6130
1739,6131
1852,6132
1890,6133
1987,6134
2006,6135
1964,6136
1991,6137
2046,6138
2220,6139
2219,6140
2221,6141
2257,6142
2242,6143
2076,6144
1863,6145
1752,6146
1668,6147
1642,6148
1647,6149
1831,6150
1892,6151
1863,6152
1907,6153
1943,6154
1969,6155
1937,6156
1849,6157
1884,6158
1871,6159
1958,6160
1924,6161
1904,6162
1928,6163
1818,6164
1685,6165
1629,6166
1554,6167
1524,6168
1519,6169
1488,6170
1531,6171
1607,6172
1752,6173
1847,6174
1930,6175
1914,6176
1897,6177
1956,6178
2077,6179
2109,6180
2087,6181
2013,6182
1933,6183
1819,6184
1725,6185
1668,6186
1684,6187
1695,6188
1696,6189
1735,6190
1766,6191
1788,6192
1751,6193
1875,6194
1923,6195
1900,6196
1950,6197
1923,6198
1903,6199
1871,6200
1864,6201
1820,6202
1799,6203
1784,6204
1779,6205
1780,6206
1777,6207
1776,6208
1764,6209
1777,6210
1684,6211
1705,6212
1675,6213
1675,6214
1715,6215
1725,6216
1760,6217
1767,6218
1810,6219
1867,6220
1933,6221
1978,6222
1993,6223
2066,6224
2121,6225
2161,6226
2147,6227
2116,6228
2046,6229
1911,6230
1875,6231
1740,6232
1751,6233
1950,6234
2089,6235
2175,6236
2176,6237
2144,6238
2139,6239
2060,6240
1899,6241
1723,6242
1552,6243
1432,6244
1479,6245
1523,6246
1619,6247
1592,6248
1580,6249
1644,6250
1648,6251
1751,6252
1861,6253
1943,6254
2039,6255
2011,6256
1955,6257
1934,6258
1927,6259
1853,6260
1813,6261
1806,6262
1869,6263
1855,6264
1837,6265
1841,6266
1828,6267
1757,6268
1710,6269
1787,6270
1805,6271
1818,6272
1821,6273
1858,6274
1901,6275
1920,6276
1932,6277
1972,6278
1928,6279
2000,6280
1987,6281
1909,6282
1806,6283
1831,6284
1819,6285
1843,6286
1841,6287
1833,6288
1836,6289
1831,6290
1808,6291
1799,6292
1735,6293
1771,6294
1896,6295
1933,6296
1981,6297
1932,6298
1953,6299
2020,6300
2051,6301
2079,6302
1923,6303
1882,6304
1812,6305
1811,6306
1707,6307
1700,6308
1677,6309
1712,6310
1745,6311
1751,6312
1885,6313
1950,6314
2073,6315
2169,6316
2199,6317
2128,6318
2019,6319
1976,6320
1895,6321
1805,6322
1760,6323
1673,6324
1697,6325
1791,6326
1834,6327
1873,6328
1834,6329
1825,6330
1830,6331
1802,6332
1806,6333
1815,6334
1795,6335
1830,6336
1784,6337
1891,6338
1925,6339
1882,6340
1894,6341
1841,6342
1863,6343
1914,6344
1891,6345
1901,6346
1856,6347
1831,6348
1787,6349
1801,6350
1789,6351
1847,6352
1884,6353
1924,6354
1917,6355
1885,6356
1878,6357
1875,6358
1915,6359
1929,6360
1905,6361
1935,6362
1932,6363
1889,6364
1935,6365
1937,6366
1893,6367
1881,6368
1772,6369
1772,6370
1801,6371
1808,6372
1811,6373
1828,6374
1815,6375
1838,6376
1810,6377
1828,6378
1840,6379
1897,6380
1908,6381
1932,6382
1907,6383
2013,6384
1996,6385
1969,6386
1929,6387
1884,6388
1902,6389
1922,6390
1891,6391
1996,6392
2061,6393
2074,6394
2082,6395
2014,6396
1945,6397
1962,6398
2091,6399
2031,6400
1945,6401
1930,6402
1914,6403
1832,6404
1695,6405
1649,6406
1640,6407
1646,6408
1723,6409
1764,6410
1821,6411
2020,6412
1993,6413
1986,6414
1991,6415
1998,6416
2034,6417
2061,6418
2008,6419
1906,6420
1822,6421
1797,6422
1803,6423
1845,6424
1793,6425
1809,6426
1840,6427
1840,6428
1794,6429
1819,6430
1891,6431
1937,6432
1941,6433
1945,6434
1910,6435
1966,6436
1988,6437
2024,6438
2020,6439
2033,6440
2003,6441
1937,6442
1938,6443
1816,6444
1793,6445
1817,6446
1812,6447
1798,6448
1745,6449
1743,6450
1705,6451
1807,6452
1830,6453
1836,6454
1871,6455
1841,6456
1829,6457
1857,6458
1894,6459
1885,6460
1926,6461
1999,6462
1994,6463
2045,6464
2007,6465
1953,6466
1930,6467
1842,6468
1775,6469
1803,6470
1812,6471
1881,6472
1970,6473
1998,6474
2019,6475
2015,6476
1971,6477
1895,6478
1930,6479
1959,6480
2048,6481
2050,6482
2103,6483
2113,6484
1998,6485
1892,6486
1830,6487
1754,6488
1863,6489
1959,6490
2108,6491
2200,6492
2181,6493
2092,6494
2031,6495
1947,6496
1808,6497
1781,6498
1713,6499
1677,6500
1703,6501
1818,6502
1871,6503
1898,6504
1893,6505
1946,6506
2066,6507
2128,6508
2110,6509
2055,6510
1919,6511
1806,6512
1833,6513
1792,6514
1747,6515
1765,6516
1768,6517
1846,6518
1916,6519
1933,6520
1897,6521
1857,6522
1814,6523
1788,6524
1741,6525
1741,6526
1770,6527
1851,6528
1888,6529
1960,6530
1930,6531
1909,6532
1948,6533
1928,6534
1903,6535
1878,6536
1892,6537
1856,6538
1826,6539
1836,6540
1882,6541
1880,6542
1880,6543
1915,6544
1893,6545
1861,6546
1930,6547
1973,6548
1953,6549
1906,6550
1948,6551
1964,6552
2075,6553
2147,6554
2250,6555
2343,6556
2379,6557
2285,6558
2157,6559
2087,6560
1989,6561
1852,6562
1852,6563
1900,6564
1883,6565
1882,6566
1818,6567
1833,6568
1823,6569
1795,6570
1733,6571
1706,6572
1762,6573
1825,6574
1899,6575
1880,6576
1917,6577
1959,6578
1982,6579
1980,6580
1984,6581
1970,6582
1968,6583
2019,6584
1957,6585
1924,6586
1888,6587
1830,6588
1809,6589
1831,6590
1856,6591
1866,6592
1888,6593
1927,6594
1940,6595
1975,6596
1974,6597
1998,6598
1958,6599
1922,6600
1944,6601
1981,6602
1972,6603
2010,6604
1959,6605
1916,6606
1845,6607
1819,6608
1820,6609
1803,6610
1787,6611
1814,6612
1915,6613
1949,6614
2019,6615
2044,6616
2040,6617
2097,6618
2272,6619
2252,6620
2151,6621
2001,6622
1878,6623
1781,6624
1659,6625
1687,6626
1678,6627
1677,6628
1819,6629
1841,6630
1866,6631
1871,6632
1890,6633
1919,6634
1971,6635
2050,6636
2144,6637
2202,6638
2180,6639
2079,6640
1994,6641
1937,6642
1852,6643
1710,6644
1683,6645
1759,6646
1791,6647
1802,6648
1863,6649
1895,6650
1960,6651
1925,6652
1959,6653
1998,6654
1967,6655
1964,6656
1987,6657
1992,6658
1987,6659
1961,6660
1948,6661
1969,6662
1975,6663
1950,6664
1947,6665
1935,6666
1925,6667
1932,6668
1999,6669
2062,6670
2095,6671
2155,6672
2239,6673
2261,6674
2217,6675
2067,6676
1921,6677
1867,6678
1827,6679
1691,6680
1715,6681
1695,6682
1723,6683
1763,6684
1802,6685
1837,6686
1789,6687
1853,6688
1931,6689
1927,6690
1893,6691
1870,6692
1897,6693
1891,6694
1866,6695
1952,6696
1994,6697
1995,6698
1986,6699
2022,6700
2036,6701
2005,6702
1958,6703
1931,6704
1924,6705
1847,6706
1835,6707
1845,6708
1904,6709
1912,6710
1951,6711
1991,6712
1996,6713
1996,6714
1975,6715
2019,6716
1997,6717
2014,6718
2010,6719
2012,6720
2048,6721
2005,6722
1970,6723
1904,6724
1886,6725
1917,6726
1922,6727
1941,6728
1934,6729
1871,6730
1846,6731
1879,6732
1874,6733
1908,6734
1911,6735
1914,6736
1960,6737
2047,6738
2204,6739
2295,6740
2308,6741
2268,6742
2214,6743
2114,6744
1998,6745
1897,6746
1786,6747
1740,6748
1679,6749
1743,6750
1706,6751
1718,6752
1800,6753
1858,6754
1910,6755
1894,6756
1905,6757
1938,6758
1921,6759
1925,6760
1973,6761
1956,6762
1923,6763
1954,6764
1904,6765
1902,6766
1907,6767
1914,6768
1913,6769
1895,6770
1934,6771
1945,6772
1911,6773
1925,6774
1919,6775
1898,6776
1896,6777
1935,6778
1902,6779
1895,6780
1925,6781
1966,6782
1969,6783
1969,6784
1949,6785
1938,6786
1956,6787
1922,6788
1940,6789
1931,6790
1900,6791
1919,6792
1937,6793
1956,6794
1935,6795
1977,6796
1936,6797
1942,6798
1934,6799
1920,6800
1939,6801
1893,6802
1890,6803
1892,6804
1928,6805
1940,6806
1944,6807
1916,6808
1911,6809
1932,6810
1984,6811
1910,6812
1923,6813
1948,6814
1954,6815
1971,6816
2020,6817
2065,6818
2097,6819
2068,6820
2028,6821
1956,6822
1937,6823
1859,6824
1864,6825
1907,6826
1974,6827
2050,6828
2155,6829
2231,6830
2180,6831
2150,6832
2033,6833
1931,6834
1812,6835
1766,6836
1698,6837
1752,6838
1873,6839
1892,6840
1955,6841
1964,6842
1922,6843
2012,6844
2066,6845
2145,6846
2169,6847
2119,6848
1994,6849
1967,6850
1897,6851
1845,6852
1879,6853
1829,6854
1844,6855
1880,6856
1910,6857
1885,6858
1920,6859
1904,6860
1938,6861
1922,6862
1924,6863
1947,6864
1899,6865
1932,6866
1973,6867
1972,6868
1928,6869
1904,6870
1916,6871
1891,6872
1900,6873
1927,6874
1941,6875
1961,6876
1934,6877
1973,6878
1974,6879
1978,6880
1992,6881
1999,6882
1975,6883
2005,6884
1987,6885
1950,6886
1904,6887
1909,6888
1908,6889
1925,6890
1885,6891
1911,6892
1901,6893
1917,6894
1951,6895
1979,6896
2023,6897
2031,6898
1997,6899
2026,6900
1991,6901
1970,6902
1919,6903
1911,6904
1871,6905
1871,6906
1901,6907
1914,6908
1915,6909
1957,6910
1961,6911
1944,6912
1955,6913
1950,6914
1947,6915
1970,6916
1963,6917
1958,6918
1918,6919
1933,6920
2018,6921
2088,6922
2116,6923
2129,6924
2069,6925
2023,6926
1922,6927
1880,6928
1868,6929
1849,6930
1875,6931
1871,6932
1882,6933
1847,6934
1874,6935
1873,6936
1874,6937
1860,6938
1895,6939
1958,6940
1970,6941
1913,6942
1977,6943
1986,6944
1992,6945
1962,6946
1935,6947
1940,6948
1931,6949
1939,6950
1915,6951
1912,6952
1873,6953
1879,6954
1869,6955
1907,6956
1954,6957
1999,6958
2048,6959
1992,6960
1981,6961
2014,6962
2021,6963
1992,6964
1979,6965
1927,6966
1924,6967
1892,6968
1917,6969
1929,6970
1970,6971
1965,6972
1998,6973
2024,6974
2060,6975
2070,6976
2030,6977
2008,6978
2007,6979
2055,6980
2007,6981
1972,6982
1952,6983
1944,6984
1903,6985
1869,6986
1867,6987
1846,6988
1855,6989
1859,6990
1894,6991
1936,6992
1923,6993
1941,6994
1945,6995
1999,6996
1958,6997
1932,6998
1950,6999
1943,7000
1963,7001
1985,7002
1985,7003
2065,7004
2082,7005
2209,7006
2223,7007
2171,7008
2041,7009
1922,7010
1848,7011
1755,7012
1757,7013
1763,7014
1853,7015
1833,7016
1871,7017
1974,7018
2042,7019
2038,7020
2064,7021
2059,7022
2112,7023
2200,7024
2127,7025
2079,7026
2036,7027
1965,7028
1903,7029
1857,7030
1811,7031
1760,7032
1721,7033
1748,7034
1808,7035
1861,7036
1847,7037
1859,7038
1891,7039
1920,7040
1976,7041
1970,7042
1941,7043
1960,7044
1954,7045
1922,7046
1945,7047
1943,7048
2003,7049
2041,7050
2056,7051
2008,7052
2033,7053
2075,7054
2080,7055
2046,7056
1994,7057
1967,7058
1975,7059
1915,7060
1923,7061
1866,7062
1953,7063
1922,7064
1924,7065
1906,7066
1923,7067
1887,7068
1910,7069
1890,7070
1954,7071
1932,7072
1956,7073
1919,7074
1969,7075
1971,7076
1989,7077
1950,7078
1981,7079
1940,7080
1981,7081
1992,7082
2032,7083
1992,7084
2006,7085
2047,7086
2000,7087
1962,7088
1923,7089
1919,7090
1889,7091
1848,7092
1901,7093
1923,7094
1913,7095
1983,7096
2051,7097
2079,7098
2044,7099
2061,7100
2053,7101
2039,7102
2003,7103
1916,7104
1885,7105
1923,7106
1888,7107
1913,7108
1927,7109
1927,7110
1936,7111
1920,7112
1931,7113
1922,7114
2015,7115
2117,7116
2200,7117
2193,7118
2129,7119
2062,7120
1935,7121
1830,7122
1712,7123
1741,7124
1749,7125
1858,7126
1949,7127
1916,7128
1905,7129
1885,7130
1906,7131
1953,7132
1948,7133
1963,7134
1966,7135
1959,7136
1941,7137
1995,7138
2004,7139
2035,7140
2092,7141
2132,7142
2103,7143
2088,7144
2047,7145
2005,7146
1960,7147
1919,7148
1856,7149
1817,7150
1827,7151
1800,7152
1822,7153
1854,7154
1874,7155
1928,7156
1951,7157
1959,7158
1985,7159
2042,7160
2086,7161
2031,7162
2064,7163
2021,7164
1967,7165
1960,7166
1953,7167
1954,7168
2037,7169
2093,7170
2145,7171
2123,7172
2024,7173
1971,7174
1917,7175
1936,7176
1972,7177
1972,7178
1963,7179
1919,7180
1900,7181
1859,7182
1832,7183
1800,7184
1796,7185
1848,7186
1891,7187
1961,7188
2060,7189
2147,7190
2257,7191
2243,7192
2277,7193
2196,7194
2128,7195
2008,7196
1903,7197
1855,7198
1791,7199
1776,7200
1863,7201
1871,7202
1905,7203
1907,7204
1898,7205
1860,7206
1829,7207
1884,7208
1881,7209
1853,7210
1855,7211
1952,7212
1977,7213
2001,7214
2029,7215
2103,7216
2152,7217
2224,7218
2223,7219
2148,7220
2103,7221
2047,7222
1953,7223
1886,7224
1948,7225
2010,7226
2060,7227
2009,7228
1999,7229
1950,7230
1949,7231
1907,7232
1811,7233
1793,7234
1814,7235
1887,7236
1920,7237
1925,7238
1925,7239
1958,7240
1999,7241
2005,7242
1983,7243
1952,7244
2010,7245
2081,7246
2085,7247
2099,7248
2080,7249
1988,7250
1877,7251
1790,7252
1730,7253
1736,7254
1764,7255
1901,7256
1967,7257
2068,7258
2054,7259
2016,7260
2003,7261
1902,7262
1936,7263
1920,7264
1898,7265
1853,7266
1841,7267
1846,7268
1862,7269
1857,7270
1877,7271
1926,7272
1958,7273
1968,7274
2030,7275
2022,7276
2118,7277
2153,7278
2101,7279
2056,7280
2034,7281
2008,7282
1942,7283
1898,7284
1865,7285
1856,7286
1851,7287
1903,7288
2008,7289
2069,7290
2055,7291
2035,7292
2032,7293
1962,7294
1919,7295
1915,7296
1910,7297
1900,7298
1903,7299
1906,7300
1913,7301
1940,7302
1931,7303
2000,7304
2093,7305
2207,7306
2218,7307
2183,7308
2109,7309
1989,7310
1863,7311
1812,7312
1871,7313
1892,7314
2016,7315
2156,7316
2217,7317
2235,7318
2135,7319
2063,7320
1966,7321
1836,7322
1753,7323
1692,7324
1664,7325
1717,7326
1796,7327
1818,7328
1880,7329
1879,7330
1928,7331
1940,7332
1966,7333
1991,7334
2014,7335
1992,7336
1980,7337
1980,7338
2024,7339
1955,7340
1890,7341
1898,7342
1855,7343
1870,7344
1885,7345
1922,7346
1915,7347
1967,7348
1988,7349
1980,7350
1969,7351
1951,7352
1884,7353
1925,7354
1975,7355
1983,7356
1967,7357
2000,7358
2056,7359
2105,7360
2119,7361
2091,7362
2045,7363
2084,7364
2109,7365
2077,7366
2018,7367
1962,7368
1837,7369
1793,7370
1777,7371
1782,7372
1820,7373
1920,7374
2000,7375
1980,7376
2002,7377
2038,7378
2036,7379
2056,7380
2084,7381
2027,7382
2034,7383
1966,7384
1972,7385
1932,7386
1913,7387
1825,7388
1818,7389
1903,7390
1892,7391
1961,7392
1959,7393
1926,7394
1951,7395
1974,7396
1993,7397
2024,7398
2022,7399
2022,7400
2047,7401
2011,7402
2004,7403
1999,7404
1984,7405
1993,7406
1986,7407
1977,7408
1985,7409
1986,7410
1980,7411
1938,7412
1918,7413
1959,7414
1925,7415
1911,7416
1865,7417
1828,7418
1832,7419
1872,7420
1898,7421
1933,7422
1886,7423
1917,7424
1960,7425
1939,7426
1952,7427
1967,7428
1969,7429
1928,7430
1902,7431
1943,7432
1933,7433
1956,7434
2011,7435
2047,7436
2001,7437
1991,7438
1991,7439
1952,7440
1918,7441
1963,7442
1959,7443
1955,7444
1964,7445
1958,7446
1957,7447
1976,7448
1993,7449
2003,7450
2016,7451
2008,7452
1985,7453
1994,7454
1998,7455
1961,7456
1938,7457
1926,7458
1946,7459
1954,7460
1928,7461
1972,7462
2024,7463
2016,7464
2041,7465
2017,7466
2048,7467
2030,7468
1967,7469
1949,7470
1909,7471
1895,7472
1899,7473
1920,7474
1925,7475
1973,7476
2056,7477
2084,7478
2128,7479
2169,7480
2213,7481
2204,7482
2150,7483
2045,7484
1940,7485
1812,7486
1721,7487
1687,7488
1640,7489
1714,7490
1826,7491
1845,7492
1922,7493
1930,7494
1970,7495
1975,7496
1939,7497
1968,7498
1987,7499
1972,7500
1992,7501
2022,7502
2031,7503
2042,7504
1996,7505
2042,7506
2052,7507
2048,7508
2039,7509
2030,7510
1969,7511
1918,7512
1888,7513
1953,7514
1976,7515
1977,7516
1994,7517
1991,7518
2017,7519
2033,7520
2008,7521
2011,7522
1973,7523
1944,7524
1953,7525
1981,7526
2012,7527
2072,7528
2087,7529
2052,7530
1988,7531
1916,7532
1868,7533
1799,7534
1807,7535
1819,7536
1856,7537
1909,7538
1981,7539
2017,7540
2036,7541
2048,7542
2068,7543
2023,7544
2038,7545
1997,7546
1976,7547
1919,7548
1905,7549
1929,7550
1904,7551
1851,7552
1880,7553
1853,7554
1881,7555
1916,7556
1929,7557
1971,7558
1976,7559
2008,7560
2006,7561
2017,7562
2011,7563
1993,7564
1976,7565
1945,7566
1953,7567
1957,7568
1955,7569
1947,7570
1950,7571
1947,7572
1943,7573
1956,7574
2008,7575
2000,7576
2087,7577
2108,7578
2064,7579
2052,7580
1981,7581
1950,7582
1871,7583
1912,7584
1883,7585
1868,7586
1929,7587
1974,7588
2074,7589
2132,7590
2133,7591
2160,7592
2169,7593
2150,7594
2083,7595
2022,7596
1916,7597
1927,7598
1839,7599
1826,7600
1861,7601
1933,7602
1942,7603
1932,7604
1937,7605
1959,7606
1965,7607
1941,7608
1972,7609
1990,7610
1989,7611
1968,7612
1953,7613
1936,7614
1923,7615
1917,7616
1920,7617
1949,7618
1956,7619
1984,7620
2000,7621
2005,7622
2004,7623
1996,7624
1959,7625
1951,7626
1914,7627
1912,7628
1912,7629
1903,7630
1921,7631
1928,7632
1963,7633
1970,7634
1980,7635
2019,7636
1993,7637
2015,7638
2058,7639
2028,7640
2047,7641
2023,7642
2040,7643
2023,7644
1963,7645
1928,7646
1915,7647
1873,7648
1920,7649
1941,7650
1983,7651
1962,7652
1974,7653
1977,7654
2023,7655
2056,7656
2045,7657
2085,7658
2079,7659
2040,7660
1998,7661
2011,7662
1968,7663
1911,7664
1919,7665
1941,7666
1931,7667
1921,7668
1939,7669
1943,7670
1936,7671
1908,7672
1952,7673
1962,7674
1963,7675
1954,7676
1985,7677
2008,7678
2000,7679
2009,7680
2061,7681
2068,7682
2024,7683
2011,7684
2072,7685
2133,7686
2109,7687
2108,7688
2108,7689
2051,7690
1969,7691
1872,7692
1837,7693
1811,7694
1861,7695
1931,7696
1998,7697
1993,7698
2023,7699
2020,7700
1996,7701
1956,7702
1941,7703
1898,7704
1892,7705
1952,7706
1934,7707
1927,7708
1929,7709
1912,7710
1946,7711
1962,7712
1976,7713
1976,7714
2012,7715
2026,7716
2046,7717
2031,7718
2064,7719
2100,7720
2071,7721
2022,7722
2030,7723
2016,7724
2009,7725
2008,7726
1990,7727
1919,7728
1857,7729
1875,7730
1846,7731
1870,7732
1879,7733
1904,7734
1933,7735
1986,7736
2002,7737
2020,7738
1986,7739
2016,7740
2013,7741
1973,7742
1991,7743
1975,7744
1959,7745
1953,7746
1975,7747
1952,7748
1935,7749
1950,7750
1994,7751
1973,7752
1979,7753
2010,7754
2032,7755
2011,7756
2046,7757
2027,7758
2020,7759
1982,7760
1959,7761
1974,7762
1951,7763
1940,7764
1935,7765
1952,7766
1962,7767
1987,7768
1985,7769
1945,7770
2006,7771
2034,7772
2009,7773
1977,7774
1984,7775
1965,7776
1983,7777
1992,7778
1996,7779
2007,7780
1961,7781
2005,7782
2018,7783
2008,7784
1941,7785
1934,7786
1964,7787
1932,7788
1924,7789
1957,7790
1981,7791
2017,7792
2014,7793
2012,7794
1984,7795
2045,7796
2099,7797
2095,7798
2074,7799
2072,7800
2053,7801
2018,7802
1954,7803
1946,7804
1939,7805
1901,7806
1946,7807
1980,7808
1937,7809
1983,7810
1977,7811
1986,7812
1980,7813
1954,7814
1964,7815
1942,7816
1945,7817
1980,7818
2006,7819
2023,7820
2047,7821
1978,7822
1979,7823
2021,7824
2005,7825
1986,7826
1955,7827
1951,7828
1926,7829
1912,7830
1947,7831
1949,7832
1968,7833
1983,7834
2021,7835
2019,7836
1989,7837
1992,7838
1990,7839
2062,7840
2098,7841
2050,7842
2007,7843
1999,7844
1981,7845
1953,7846
1899,7847
1858,7848
1877,7849
1884,7850
1910,7851
1889,7852
1913,7853
1952,7854
1977,7855
1994,7856
2017,7857
2009,7858
2022,7859
2023,7860
2030,7861
2021,7862
2031,7863
1997,7864
1979,7865
1943,7866
1906,7867
1934,7868
1939,7869
1957,7870
1962,7871
1979,7872
2014,7873
2043,7874
2067,7875
2061,7876
2110,7877
2101,7878
2093,7879
2121,7880
2093,7881
2028,7882
2000,7883
1964,7884
1861,7885
1854,7886
1840,7887
1839,7888
1895,7889
1884,7890
1909,7891
1920,7892
1933,7893
1927,7894
2031,7895
2199,7896
2203,7897
2283,7898
2249,7899
2218,7900
2168,7901
2065,7902
1975,7903
1804,7904
1710,7905
1764,7906
1817,7907
1813,7908
1813,7909
1857,7910
1915,7911
1919,7912
1956,7913
1976,7914
2008,7915
1981,7916
1963,7917
1993,7918
1985,7919
1982,7920
1992,7921
1977,7922
1979,7923
1978,7924
1988,7925
2018,7926
1998,7927
2005,7928
1988,7929
2001,7930
1995,7931
1985,7932
1959,7933
1921,7934
1948,7935
1975,7936
2009,7937
2007,7938
1995,7939
1974,7940
1964,7941
1976,7942
1967,7943
1971,7944
1990,7945
1954,7946
1980,7947
1993,7948
1961,7949
2024,7950
2058,7951
2084,7952
2063,7953
2052,7954
2044,7955
1977,7956
1924,7957
1892,7958
1925,7959
1950,7960
1962,7961
1977,7962
1978,7963
1997,7964
2001,7965
2002,7966
1972,7967
1950,7968
2011,7969
2034,7970
2074,7971
2084,7972
2083,7973
2052,7974
2028,7975
2021,7976
1991,7977
1957,7978
1987,7979
1956,7980
1953,7981
1892,7982
1823,7983
1816,7984
1826,7985
1848,7986
1942,7987
1955,7988
1983,7989
1990,7990
1974,7991
1993,7992
2000,7993
1952,7994
1949,7995
1931,7996
1929,7997
1943,7998
1947,7999
1959,8000
1938,8001
1960,8002
1919,8003
1907,8004
1910,8005
1907,8006
1916,8007
1930,8008
1932,8009
1963,8010
1945,8011
1950,8012
1909,8013
1936,8014
1999,8015
1997,8016
2074,8017
2085,8018
2088,8019
2055,8020
2021,8021
1975,8022
2014,8023
2008,8024
1969,8025
1935,8026
1926,8027
1922,8028
1952,8029
1988,8030
1995,8031
1980,8032
2010,8033
2046,8034
2059,8035
2088,8036
2027,8037
2002,8038
1942,8039
1947,8040
1969,8041
2068,8042
2123,8043
2158,8044
2121,8045
2116,8046
2018,8047
1976,8048
1866,8049
1763,8050
1745,8051
1770,8052
1807,8053
1849,8054
1863,8055
1901,8056
1944,8057
1956,8058
1994,8059
2014,8060
2006,8061
1993,8062
1956,8063
1944,8064
1976,8065
1944,8066
1926,8067
1913,8068
1876,8069
1885,8070
1888,8071
1932,8072
1980,8073
1958,8074
2000,8075
2036,8076
2061,8077
2065,8078
2066,8079
2107,8080
2074,8081
2072,8082
2055,8083
2055,8084
2043,8085
1993,8086
1992,8087
1953,8088
1923,8089
1935,8090
2068,8091
2056,8092
2060,8093
2024,8094
1962,8095
1928,8096
1908,8097
1978,8098
2007,8099
2014,8100
2136,8101
2176,8102
2154,8103
2118,8104
2068,8105
1954,8106
1895,8107
1850,8108
1776,8109
1769,8110
1763,8111
1844,8112
1855,8113
1920,8114
1979,8115
2021,8116
2028,8117
2007,8118
2005,8119
2017,8120
1964,8121
1956,8122
1958,8123
1959,8124
2037,8125
2059,8126
2051,8127
2002,8128
1973,8129
1932,8130
1889,8131
1884,8132
1889,8133
1904,8134
1891,8135
1945,8136
1945,8137
1947,8138
1936,8139
1933,8140
1943,8141
1931,8142
1933,8143
1943,8144
1933,8145
1956,8146
1951,8147
2000,8148
1957,8149
1992,8150
2000,8151
2003,8152
2003,8153
1956,8154
1980,8155
1976,8156
2018,8157
2068,8158
2132,8159
2151,8160
2156,8161
2115,8162
2031,8163
1988,8164
1913,8165
1867,8166
1811,8167
1835,8168
1869,8169
1940,8170
1959,8171
2007,8172
2020,8173
2042,8174
2040,8175
2017,8176
1984,8177
1998,8178
2018,8179
2081,8180
2172,8181
2215,8182
2185,8183
2097,8184
2042,8185
1931,8186
1855,8187
1788,8188
1780,8189
1846,8190
1931,8191
2021,8192
2060,8193
2031,8194
1957,8195
1947,8196
1921,8197
1944,8198
1997,8199
2009,8200
2003,8201
1967,8202
1962,8203
1966,8204
1983,8205
2024,8206
2081,8207
2102,8208
2113,8209
2073,8210
2074,8211
1980,8212
1969,8213
2008,8214
2079,8215
2098,8216
2095,8217
1996,8218
1941,8219
1906,8220
1838,8221
1793,8222
1815,8223
1864,8224
1867,8225
1943,8226
1970,8227
1972,8228
1980,8229
1984,8230
2033,8231
2112,8232
2120,8233
2128,8234
2131,8235
2087,8236
2107,8237
2107,8238
2052,8239
1963,8240
1909,8241
1934,8242
1942,8243
1908,8244
1968,8245
2075,8246
2123,8247
2078,8248
2063,8249
2022,8250
2013,8251
1944,8252
1915,8253
1963,8254
1896,8255
1925,8256
1893,8257
1943,8258
1881,8259
1936,8260
2012,8261
2084,8262
2086,8263
2041,8264
1999,8265
1947,8266
1888,8267
1916,8268
1935,8269
1960,8270
1955,8271
1913,8272
1947,8273
1975,8274
1934,8275
1946,8276
1927,8277
1945,8278
1955,8279
1982,8280
1990,8281
1998,8282
1964,8283
1928,8284
1937,8285
1952,8286
1937,8287
1923,8288
1975,8289
1964,8290
1975,8291
2031,8292
2053,8293
2056,8294
2070,8295
2089,8296
2070,8297
2063,8298
2031,8299
1969,8300
1948,8301
1985,8302
2003,8303
1992,8304
2029,8305
2048,8306
2008,8307
1947,8308
1985,8309
2033,8310
2156,8311
2268,8312
2312,8313
2273,8314
2232,8315
2126,8316
2105,8317
2123,8318
2103,8319
2057,8320
2018,8321
2035,8322
1983,8323
1960,8324
1933,8325
1902,8326
1927,8327
1923,8328
1893,8329
1861,8330
1837,8331
1794,8332
1779,8333
1810,8334
1911,8335
2043,8336
2083,8337
2126,8338
2132,8339
2095,8340
2014,8341
1894,8342
1801,8343
1765,8344
1724,8345
1831,8346
1873,8347
1930,8348
1977,8349
1984,8350
1980,8351
2032,8352
2014,8353
2032,8354
1984,8355
1984,8356
1978,8357
2006,8358
1962,8359
1960,8360
2028,8361
2009,8362
2031,8363
1999,8364
1964,8365
1927,8366
1955,8367
1929,8368
1948,8369
1969,8370
1984,8371
2016,8372
2010,8373
2030,8374
2070,8375
2073,8376
2017,8377
2054,8378
2057,8379
2077,8380
2083,8381
2109,8382
2131,8383
2198,8384
2216,8385
2178,8386
2149,8387
2078,8388
2024,8389
1996,8390
1953,8391
1915,8392
1885,8393
1888,8394
1889,8395
1910,8396
1917,8397
1945,8398
1969,8399
1977,8400
1944,8401
1969,8402
1993,8403
2120,8404
2235,8405
2345,8406
2277,8407
2173,8408
2055,8409
1977,8410
1877,8411
1778,8412
1797,8413
1844,8414
1912,8415
2040,8416
2165,8417
2212,8418
2188,8419
2087,8420
2049,8421
1983,8422
1911,8423
2018,8424
2052,8425
2041,8426
2049,8427
2048,8428
2045,8429
1948,8430
1898,8431
1846,8432
1855,8433
1941,8434
1954,8435
1993,8436
2010,8437
1983,8438
1986,8439
1965,8440
1934,8441
2024,8442
2152,8443
2192,8444
2170,8445
2137,8446
2058,8447
2013,8448
1956,8449
1882,8450
1831,8451
1853,8452
1863,8453
1856,8454
1883,8455
1921,8456
1975,8457
2000,8458
2053,8459
2043,8460
2204,8461
2302,8462
2314,8463
2201,8464
2144,8465
2101,8466
1968,8467
1933,8468
1907,8469
1904,8470
1810,8471
1847,8472
1863,8473
1935,8474
2007,8475
1969,8476
1966,8477
1943,8478
1962,8479
1948,8480
1941,8481
1893,8482
1907,8483
1903,8484
1931,8485
1950,8486
1996,8487
2028,8488
2028,8489
2015,8490
2045,8491
2060,8492
2008,8493
2023,8494
2029,8495
2086,8496
2112,8497
2228,8498
2322,8499
2388,8500
2292,8501
2162,8502
1992,8503
1852,8504
1705,8505
1641,8506
1707,8507
1779,8508
1825,8509
1886,8510
1940,8511
1943,8512
2009,8513
2089,8514
2168,8515
2215,8516
2242,8517
2243,8518
2217,8519
2141,8520
2223,8521
2370,8522
2403,8523
2279,8524
2149,8525
2033,8526
1878,8527
1785,8528
1760,8529
1700,8530
1778,8531
1931,8532
1944,8533
1929,8534
2046,8535
2164,8536
2200,8537
2186,8538
2151,8539
2074,8540
1965,8541
1923,8542
1907,8543
1886,8544
1859,8545
1851,8546
1809,8547
1752,8548
1772,8549
1853,8550
1990,8551
2148,8552
2161,8553
2142,8554
2080,8555
2018,8556
1939,8557
1902,8558
1931,8559
1944,8560
1895,8561
1889,8562
1888,8563
1873,8564
1925,8565
1910,8566
1961,8567
1959,8568
1920,8569
1948,8570
1965,8571
1952,8572
2008,8573
2055,8574
2079,8575
2034,8576
2077,8577
2065,8578
2030,8579
1999,8580
1954,8581
1892,8582
1924,8583
1910,8584
1907,8585
1932,8586
2005,8587
2072,8588
2099,8589
2173,8590
2183,8591
2154,8592
2127,8593
2089,8594
2025,8595
2000,8596
2011,8597
2007,8598
2004,8599
1998,8600
1935,8601
1941,8602
1967,8603
1962,8604
1949,8605
1903,8606
1886,8607
1924,8608
1958,8609
1934,8610
2032,8611
2077,8612
2122,8613
2248,8614
2311,8615
2331,8616
2247,8617
2090,8618
2016,8619
1935,8620
1929,8621
2070,8622
2058,8623
2035,8624
2055,8625
2065,8626
2070,8627
2087,8628
1988,8629
1910,8630
1805,8631
1842,8632
1802,8633
1820,8634
1816,8635
1846,8636
1931,8637
1977,8638
2039,8639
2110,8640
2116,8641
2179,8642
2214,8643
2098,8644
2015,8645
1972,8646
1965,8647
1908,8648
1798,8649
1718,8650
1753,8651
1727,8652
1711,8653
1723,8654
1806,8655
1859,8656
1947,8657
2058,8658
2077,8659
2135,8660
2081,8661
2097,8662
2076,8663
2046,8664
1964,8665
1937,8666
1904,8667
1889,8668
1886,8669
1979,8670
2083,8671
2148,8672
2176,8673
2135,8674
2109,8675
2018,8676
2038,8677
2073,8678
2063,8679
1951,8680
1883,8681
1856,8682
1773,8683
1747,8684
1801,8685
1902,8686
1976,8687
2015,8688
2041,8689
2066,8690
2053,8691
2045,8692
2035,8693
2079,8694
2105,8695
2076,8696
2127,8697
2096,8698
2108,8699
2139,8700
2219,8701
2239,8702
2227,8703
2184,8704
2109,8705
2024,8706
1833,8707
1710,8708
1650,8709
1682,8710
1788,8711
1841,8712
1924,8713
1995,8714
2119,8715
2302,8716
2368,8717
2302,8718
2152,8719
1996,8720
1862,8721
1738,8722
1795,8723
1879,8724
1915,8725
1896,8726
1899,8727
1920,8728
1879,8729
1903,8730
1925,8731
1970,8732
1945,8733
1911,8734
1901,8735
1864,8736
1937,8737
1961,8738
2000,8739
2036,8740
2035,8741
2040,8742
2094,8743
2062,8744
2079,8745
2057,8746
2061,8747
2162,8748
2165,8749
2128,8750
2106,8751
2027,8752
1985,8753
1951,8754
2008,8755
2008,8756
1999,8757
2056,8758
2048,8759
2027,8760
1938,8761
1895,8762
1855,8763
1786,8764
1745,8765
1802,8766
1816,8767
1877,8768
1961,8769
1952,8770
1955,8771
1993,8772
1995,8773
1986,8774
1968,8775
1984,8776
1977,8777
2002,8778
1978,8779
2005,8780
2092,8781
2106,8782
2182,8783
2240,8784
2110,8785
1995,8786
1949,8787
1885,8788
1788,8789
1772,8790
1774,8791
1825,8792
1801,8793
1853,8794
1924,8795
1971,8796
2014,8797
2068,8798
2080,8799
2100,8800
2136,8801
2157,8802
2164,8803
2174,8804
2160,8805
2056,8806
1984,8807
1867,8808
1850,8809
1869,8810
1887,8811
1915,8812
1987,8813
2030,8814
2036,8815
2053,8816
2048,8817
2022,8818
2059,8819
2048,8820
2099,8821
2009,8822
1990,8823
1968,8824
1952,8825
1939,8826
1967,8827
2009,8828
2000,8829
2047,8830
2067,8831
2123,8832
2001,8833
1924,8834
1946,8835
2039,8836
2153,8837
2130,8838
2107,8839
1972,8840
1906,8841
1876,8842
1751,8843
1767,8844
1783,8845
1779,8846
1865,8847
1943,8848
1989,8849
2017,8850
1998,8851
1983,8852
1955,8853
1947,8854
1861,8855
1840,8856
1917,8857
1915,8858
1906,8859
1939,8860
1927,8861
1930,8862
1907,8863
1932,8864
1970,8865
2011,8866
2007,8867
2006,8868
2032,8869
2020,8870
1977,8871
1948,8872
1977,8873
2009,8874
2025,8875
2022,8876
2015,8877
1970,8878
1997,8879
1978,8880
2083,8881
2172,8882
2195,8883
2202,8884
2192,8885
2138,8886
2095,8887
2040,8888
1898,8889
1811,8890
1802,8891
1798,8892
1799,8893
1851,8894
1975,8895
2144,8896
2145,8897
2163,8898
2165,8899
2104,8900
2026,8901
1981,8902
1896,8903
1839,8904
1842,8905
1779,8906
1741,8907
1799,8908
1814,8909
1854,8910
1847,8911
1846,8912
1896,8913
1936,8914
1982,8915
2048,8916
2080,8917
2142,8918
2116,8919
2067,8920
2050,8921
2012,8922
2051,8923
2167,8924
2262,8925
2213,8926
2149,8927
2027,8928
1912,8929
1802,8930
1680,8931
1677,8932
1761,8933
1825,8934
1915,8935
2075,8936
2157,8937
2161,8938
2160,8939
2152,8940
2084,8941
1962,8942
1861,8943
1854,8944
1779,8945
1877,8946
1926,8947
2088,8948
2159,8949
2243,8950
2207,8951
2100,8952
2034,8953
1891,8954
1847,8955
1796,8956
1765,8957
1801,8958
1861,8959
1888,8960
1965,8961
2026,8962
1997,8963
1980,8964
1969,8965
1875,8966
1848,8967
1869,8968
1999,8969
2016,8970
2006,8971
1942,8972
1915,8973
1927,8974
1918,8975
1947,8976
1996,8977
2033,8978
2088,8979
2156,8980
2150,8981
2107,8982
2045,8983
1926,8984
1912,8985
1845,8986
1707,8987
1712,8988
1801,8989
1851,8990
1951,8991
1984,8992
1993,8993
2054,8994
2077,8995
2115,8996
2104,8997
2039,8998
1992,8999
2095,9000
2103,9001
2072,9002
2012,9003
1963,9004
1882,9005
1842,9006
1816,9007
1822,9008
1877,9009
1904,9010
1973,9011
1986,9012
2019,9013
2064,9014
2095,9015
2067,9016
2048,9017
2013,9018
2059,9019
2100,9020
2127,9021
2140,9022
2148,9023
2071,9024
2000,9025
1960,9026
1905,9027
1840,9028
1783,9029
1700,9030
1827,9031
1935,9032
2071,9033
2112,9034
2208,9035
2304,9036
2312,9037
2184,9038
2056,9039
1834,9040
1756,9041
1685,9042
1588,9043
1618,9044
1700,9045
1817,9046
1878,9047
1933,9048
1960,9049
1988,9050
2000,9051
2003,9052
2005,9053
1979,9054
1915,9055
1856,9056
1866,9057
1977,9058
2074,9059
2135,9060
2104,9061
2003,9062
1926,9063
1839,9064
1983,9065
2004,9066
1987,9067
1917,9068
1948,9069
2038,9070
2035,9071
2044,9072
2010,9073
2019,9074
2030,9075
1966,9076
1939,9077
1860,9078
1865,9079
1866,9080
1963,9081
1944,9082
1929,9083
1903,9084
1937,9085
1978,9086
2045,9087
2113,9088
2080,9089
2140,9090
2201,9091
2242,9092
2272,9093
2279,9094
2208,9095
2158,9096
2170,9097
2078,9098
1869,9099
1792,9100
1756,9101
1764,9102
1746,9103
1750,9104
1820,9105
1844,9106
1828,9107
1807,9108
1755,9109
1774,9110
1813,9111
1829,9112
1834,9113
1973,9114
2111,9115
2116,9116
2055,9117
1936,9118
1879,9119
1799,9120
1756,9121
1823,9122
1902,9123
1984,9124
2082,9125
2079,9126
2040,9127
2053,9128
2037,9129
2000,9130
2009,9131
2098,9132
2210,9133
2278,9134
2323,9135
2339,9136
2375,9137
2295,9138
2134,9139
1892,9140
1840,9141
1779,9142
1740,9143
1729,9144
1712,9145
1729,9146
1817,9147
1889,9148
1911,9149
1984,9150
1995,9151
2002,9152
1958,9153
1947,9154
1937,9155
1904,9156
1837,9157
1831,9158
1883,9159
1927,9160
1943,9161
1974,9162
2047,9163
2080,9164
2127,9165
2074,9166
1987,9167
1935,9168
1880,9169
1798,9170
1717,9171
1768,9172
1802,9173
1830,9174
1915,9175
1960,9176
1999,9177
2012,9178
2049,9179
2090,9180
2055,9181
1997,9182
1948,9183
1866,9184
1863,9185
1851,9186
1955,9187
2048,9188
2015,9189
1976,9190
1988,9191
2048,9192
2185,9193
2283,9194
2475,9195
2389,9196
2280,9197
2160,9198
1951,9199
1738,9200
1675,9201
1685,9202
1738,9203
1864,9204
2056,9205
2159,9206
2108,9207
2044,9208
1970,9209
1852,9210
1793,9211
1764,9212
1817,9213
1891,9214
1910,9215
2019,9216
2224,9217
2400,9218
2393,9219
2269,9220
2124,9221
1950,9222
1800,9223
1740,9224
1723,9225
1734,9226
1798,9227
1846,9228
1866,9229
1856,9230
1791,9231
1880,9232
1906,9233
1942,9234
2013,9235
2016,9236
1981,9237
1934,9238
1986,9239
2048,9240
2063,9241
2065,9242
2080,9243
2032,9244
1942,9245
1859,9246
1808,9247
1818,9248
1798,9249
1809,9250
1832,9251
1844,9252
1921,9253
1976,9254
2016,9255
2147,9256
2131,9257
2114,9258
2024,9259
1991,9260
1933,9261
1928,9262
1902,9263
2052,9264
2184,9265
2325,9266
2285,9267
2229,9268
2108,9269
1987,9270
2018,9271
1963,9272
1877,9273
1872,9274
1866,9275
1861,9276
1834,9277
1768,9278
1760,9279
1768,9280
1764,9281
1815,9282
1793,9283
1809,9284
1803,9285
1846,9286
1957,9287
2112,9288
2117,9289
2235,9290
2311,9291
2213,9292
2073,9293
1967,9294
1869,9295
1837,9296
1800,9297
1853,9298
1935,9299
2097,9300
2392,9301
2568,9302
2520,9303
2295,9304
2077,9305
1895,9306
1635,9307
1499,9308
1393,9309
1524,9310
1664,9311
1792,9312
1899,9313
1931,9314
2017,9315
2090,9316
2115,9317
2125,9318
2070,9319
2002,9320
1937,9321
1964,9322
2038,9323
2073,9324
1990,9325
1923,9326
1875,9327
1820,9328
1778,9329
1857,9330
2017,9331
2118,9332
2158,9333
2145,9334
2097,9335
2065,9336
2055,9337
2057,9338
1993,9339
1876,9340
1852,9341
1820,9342
1772,9343
1756,9344
1821,9345
1851,9346
1952,9347
2076,9348
2037,9349
1937,9350
1877,9351
1835,9352
1801,9353
1794,9354
1802,9355
1828,9356
1840,9357
1858,9358
1888,9359
1945,9360
1982,9361
2024,9362
2000,9363
1942,9364
1951,9365
1925,9366
1926,9367
1956,9368
1929,9369
1994,9370
2006,9371
1971,9372
1913,9373
1951,9374
1954,9375
1929,9376
1927,9377
1917,9378
1902,9379
1931,9380
1940,9381
1920,9382
1943,9383
1943,9384
1904,9385
1897,9386
1901,9387
1913,9388
1913,9389
1900,9390
1926,9391
1970,9392
1957,9393
1968,9394
1986,9395
2029,9396
2087,9397
2115,9398
2150,9399
2187,9400
2188,9401
2152,9402
2174,9403
2082,9404
1949,9405
1913,9406
1943,9407
1881,9408
1819,9409
1783,9410
1732,9411
1702,9412
1647,9413
1713,9414
1777,9415
1843,9416
1820,9417
1909,9418
1922,9419
1955,9420
1948,9421
1944,9422
1921,9423
1923,9424
1905,9425
1912,9426
1900,9427
1907,9428
1913,9429
1920,9430
1949,9431
1937,9432
1940,9433
1940,9434
1956,9435
1960,9436
1923,9437
1965,9438
1931,9439
1964,9440
1903,9441
1916,9442
1940,9443
1877,9444
1904,9445
1935,9446
1929,9447
1906,9448
1899,9449
1934,9450
1922,9451
1946,9452
1951,9453
1952,9454
1960,9455
1967,9456
1956,9457
1951,9458
1907,9459
1926,9460
1935,9461
1932,9462
1910,9463
1921,9464
1901,9465
1890,9466
1901,9467
1876,9468
1904,9469
1921,9470
1936,9471
1948,9472
1905,9473
1953,9474
1939,9475
1936,9476
1956,9477
1944,9478
1923,9479
1913,9480
1924,9481
1879,9482
1938,9483
1870,9484
1883,9485
1912,9486
1892,9487
1864,9488
1930,9489
1922,9490
1959,9491
1927,9492
1960,9493
1933,9494
1935,9495
1963,9496
1943,9497
1950,9498
1919,9499
1913,9500
1909,9501
1903,9502
1929,9503
1917,9504
1911,9505
1872,9506
1885,9507
1884,9508
1911,9509
1943,9510
1918,9511
1941,9512
1963,9513
1921,9514
1945,9515
1952,9516
1920,9517
1917,9518
1893,9519
1920,9520
1884,9521
1864,9522
1911,9523
1895,9524
1835,9525
1911,9526
1904,9527
1903,9528
1869,9529
1940,9530
1903,9531
1911,9532
1945,9533
1945,9534
1963,9535
1966,9536
1943,9537
1953,9538
1948,9539
1947,9540
1939,9541
1947,9542
1911,9543
1889,9544
1914,9545
1913,9546
1894,9547
1942,9548
1924,9549
1943,9550
1927,9551
1937,9552
1948,9553
1927,9554
1975,9555
1966,9556
1989,9557
1969,9558
1976,9559
1962,9560
1966,9561
1952,9562
1967,9563
1941,9564
1942,9565
1914,9566
1943,9567
1939,9568
1910,9569
1921,9570
1963,9571
1968,9572
1990,9573
1959,9574
1999,9575
1970,9576
1984,9577
1983,9578
1986,9579
1974,9580
1970,9581
1968,9582
1969,9583
1942,9584
1946,9585
1941,9586
1955,9587
1929,9588
1972,9589
1964,9590
1950,9591
1973,9592
1974,9593
1998,9594
2003,9595
1976,9596
2008,9597
1942,9598
1975,9599
1982,9600
1980,9601
1965,9602
1965,9603
1977,9604
1954,9605
1932,9606
1942,9607
1980,9608
1966,9609
1932,9610
1954,9611
1977,9612
1984,9613
1985,9614
2036,9615
2014,9616
2007,9617
2020,9618
2012,9619
2023,9620
1991,9621
1983,9622
1994,9623
1978,9624
1976,9625
1939,9626
1991,9627
2014,9628
1990,9629
1987,9630
2009,9631
2018,9632
1987,9633
2041,9634
2014,9635
1998,9636
2003,9637
2033,9638
2016,9639
1998,9640
1952,9641
1990,9642
1965,9643
1970,9644
1934,9645
1957,9646
1958,9647
1974,9648
1967,9649
1963,9650
1986,9651
2019,9652
2026,9653
1985,9654
2016,9655
2016,9656
2002,9657
1976,9658
2006,9659
2016,9660
1964,9661
2002,9662
1994,9663
1968,9664
1976,9665
1970,9666
1996,9667
1973,9668
1942,9669
1959,9670
2000,9671
2001,9672
1994,9673
1987,9674
2017,9675
2027,9676
2014,9677
2027,9678
1996,9679
2011,9680
2001,9681
1939,9682
1958,9683
1959,9684
1940,9685
1932,9686
1975,9687
1959,9688
1958,9689
1990,9690
2010,9691
2018,9692
2036,9693
2040,9694
2055,9695
2059,9696
2042,9697
2062,9698
2043,9699
2000,9700
2002,9701
2004,9702
2011,9703
1984,9704
1972,9705
1961,9706
1985,9707
1996,9708
2006,9709
2002,9710
1982,9711
2004,9712
1991,9713
2037,9714
1971,9715
2009,9716
2009,9717
1976,9718
1944,9719
1981,9720
1975,9721
1973,9722
1973,9723
1971,9724
2014,9725
2008,9726
1991,9727
1988,9728
2004,9729
1959,9730
2005,9731
1998,9732
2033,9733
2015,9734
2026,9735
2037,9736
2048,9737
2002,9738
2003,9739
2001,9740
2031,9741
1994,9742
1991,9743
1976,9744
1971,9745
1992,9746
1948,9747
1986,9748
1953,9749
2020,9750
1990,9751
1997,9752
2034,9753
2042,9754
2015,9755
2051,9756
2018,9757
1999,9758
2029,9759
2023,9760
2007,9761
1985,9762
1975,9763
1963,9764
1928,9765
1957,9766
1995,9767
1954,9768
2004,9769
1985,9770
1992,9771
1995,9772
2010,9773
2008,9774
1976,9775
1984,9776
2025,9777
2007,9778
1988,9779
1998,9780
2003,9781
1972,9782
1971,9783
1943,9784
1964,9785
1943,9786
1990,9787
1964,9788
1948,9789
1955,9790
1967,9791
1971,9792
1989,9793
1997,9794
1996,9795
2028,9796
2005,9797
2004,9798
2006,9799
2004,9800
1963,9801
1960,9802
2006,9803
1989,9804
2006,9805
1963,9806
1947,9807
1980,9808
1939,9809
1933,9810
1963,9811
1973,9812
1974,9813
2060,9814
2021,9815
2004,9816
1999,9817
1985,9818
2019,9819
1967,9820
2004,9821
1990,9822
1984,9823
1993,9824
1956,9825
1965,9826
1973,9827
1956,9828
1971,9829
1983,9830
1955,9831
1983,9832
1985,9833
1994,9834
1996,9835
2026,9836
1992,9837
2022,9838
1959,9839
1977,9840
1968,9841
1974,9842
1934,9843
1966,9844
1957,9845
1935,9846
1967,9847
1956,9848
1955,9849
1968,9850
1994,9851
2004,9852
1989,9853
2008,9854
1994,9855
2044,9856
1985,9857
1999,9858
1959,9859
1959,9860
1972,9861
1986,9862
1978,9863
1980,9864
1976,9865
1975,9866
1964,9867
1941,9868
1967,9869
1945,9870
1991,9871
1964,9872
1955,9873
1959,9874
1943,9875
1978,9876
1993,9877
2028,9878
1997,9879
1975,9880
1967,9881
1956,9882
1950,9883
1943,9884
1916,9885
1948,9886
1952,9887
1942,9888
1970,9889
1967,9890
1956,9891
2006,9892
2005,9893
1963,9894
1989,9895
1943,9896
1969,9897
1979,9898
1977,9899
1979,9900
1989,9901
1963,9902
1977,9903
1964,9904
1984,9905
1923,9906
1961,9907
1968,9908
1978,9909
1944,9910
1972,9911
1965,9912
1971,9913
1974,9914
1994,9915
1996,9916
1984,9917
1978,9918
1996,9919
2011,9920
1943,9921
1936,9922
1956,9923
1943,9924
1946,9925
1927,9926
1959,9927
1929,9928
1977,9929
1994,9930
1984,9931
1958,9932
1991,9933
1996,9934
1966,9935
1992,9936
1989,9937
1983,9938
1979,9939
1945,9940
1951,9941
1957,9942
1918,9943
1925,9944
1909,9945
1937,9946
1945,9947
1945,9948
1940,9949
1933,9950
1958,9951
1979,9952
1953,9953
1980,9954
1965,9955
2008,9956
1999,9957
1985,9958
1972,9959
1969,9960
1954,9961
1923,9962
1941,9963
1927,9964
1898,9965
1898,9966
1923,9967
1902,9968
1915,9969
1984,9970
1925,9971
1954,9972
1968,9973
1943,9974
1967,9975
1966,9976
1952,9977
1969,9978
1991,9979
1943,9980
1945,9981
1960,9982
1951,9983
1922,9984
1899,9985
1945,9986
1934,9987
1901,9988
1934,9989
1944,9990
1927,9991
1928,9992
1959,9993
2002,9994
1973,9995
1967,9996
2003,9997
2000,9998
1946,9999
1957,10000
1932,10001
1909,10002
1942,10003
1928,10004
1923,10005
1920,10006
1931,10007
1971,10008
1919,10009
1919,10010
1932,10011
1939,10012
1927,10013
1966,10014
1966,10015
1946,10016
1948,10017
1949,10018
1991,10019
1952,10020
1939,10021
1915,10022
1906,10023
1911,10024
1942,10025
1928,10026
1945,10027
1906,10028
1920,10029
1932,10030
1940,10031
1953,10032
1959,10033
1943,10034
1976,10035
1953,10036
1954,10037
1972,10038
1930,10039
1966,10040
1948,10041
1967,10042
1907,10043
1940,10044
1934,10045
1932,10046
1933,10047
1915,10048
1931,10049
1959,10050
1945,10051
1956,10052
1963,10053
1976,10054
1976,10055
1977,10056
1962,10057
1974,10058
1967,10059
1988,10060
2003,10061
1972,10062
1964,10063
1953,10064
1966,10065
1935,10066
1920,10067
1896,10068
1871,10069
1901,10070
1896,10071
1903,10072
1884,10073
1900,10074
1924,10075
1955,10076
1903,10077
1968,10078
1941,10079
1891,10080
1945,10081
1916,10082
1948,10083
1900,10084
1890,10085
1879,10086
1884,10087
1884,10088
1922,10089
1898,10090
1916,10091
1945,10092
1960,10093
1955,10094
1952,10095
1969,10096
1975,10097
1959,10098
1947,10099
1920,10100
1937,10101
1893,10102
1916,10103
1924,10104
1891,10105
1883,10106
1857,10107
1915,10108
1882,10109
1926,10110
1912,10111
1896,10112
1938,10113
1969,10114
1969,10115
1981,10116
1944,10117
1955,10118
1924,10119
1940,10120
1939,10121
1901,10122
1905,10123
1880,10124
1890,10125
1887,10126
1883,10127
1895,10128
1911,10129
1927,10130
1913,10131
1931,10132
1923,10133
1960,10134
1980,10135
1974,10136
1955,10137
1969,10138
1918,10139
1905,10140
1911,10141
1893,10142
1923,10143
1868,10144
1876,10145
1879,10146
1895,10147
1844,10148
1866,10149
1895,10150
1902,10151
1916,10152
1911,10153
1905,10154
1950,10155
1968,10156
1980,10157
1982,10158
1968,10159
1950,10160
1969,10161
1931,10162
1952,10163
1932,10164
1950,10165
1923,10166
1904,10167
1934,10168
1925,10169
1929,10170
1921,10171
1946,10172
1930,10173
1958,10174
1938,10175
1931,10176
1966,10177
1945,10178
1933,10179
1922,10180
1927,10181
1912,10182
1903,10183
1902,10184
1896,10185
1927,10186
1904,10187
1910,10188
1911,10189
1936,10190
1941,10191
1943,10192
1947,10193
1966,10194
1904,10195
1952,10196
1956,10197
1941,10198
1951,10199
1944,10200
1918,10201
1896,10202
1915,10203
1894,10204
1863,10205
1914,10206
1905,10207
1869,10208
1917,10209
1929,10210
1945,10211
1908,10212
1966,10213
1935,10214
1958,10215
1941,10216
1960,10217
1985,10218
1912,10219
1932,10220
1922,10221
1905,10222
1907,10223
1905,10224
1898,10225
1885,10226
1867,10227
1907,10228
1909,10229
1909,10230
1940,10231
1939,10232
1942,10233
1957,10234
1994,10235
1943,10236
1936,10237
1904,10238
1930,10239
1914,10240
1899,10241
1895,10242
1887,10243
1883,10244
1901,10245
1885,10246
1889,10247
1900,10248
1870,10249
1892,10250
1914,10251
1963,10252
1941,10253
1920,10254
1937,10255
1962,10256
1948,10257
1968,10258
1943,10259
1934,10260
1939,10261
1958,10262
1920,10263
1907,10264
1905,10265
1871,10266
1943,10267
1870,10268
1913,10269
1931,10270
1914,10271
1935,10272
1929,10273
1962,10274
1949,10275
1974,10276
1961,10277
1941,10278
1915,10279
1906,10280
1922,10281
1888,10282
1858,10283
1880,10284
1890,10285
1894,10286
1871,10287
1908,10288
1895,10289
1912,10290
1941,10291
1910,10292
1940,10293
1958,10294
1975,10295
1973,10296
1970,10297
1931,10298
1952,10299
1903,10300
1884,10301
1927,10302
1910,10303
1906,10304
1897,10305
1900,10306
1890,10307
1894,10308
1928,10309
1930,10310
1914,10311
1956,10312
1941,10313
1951,10314
1932,10315
1968,10316
1970,10317
1949,10318
1938,10319
1942,10320
1931,10321
1933,10322
1936,10323
1898,10324
1930,10325
1901,10326
1927,10327
1882,10328
1916,10329
1953,10330
1945,10331
1910,10332
1946,10333
1933,10334
1949,10335
1940,10336
1987,10337
1981,10338
1968,10339
1935,10340
1956,10341
1975,10342
1930,10343
1888,10344
1933,10345
1910,10346
1863,10347
1878,10348
1913,10349
1907,10350
1921,10351
1954,10352
1927,10353
1938,10354
1947,10355
1959,10356
1959,10357
1965,10358
1959,10359
1924,10360
1927,10361
1952,10362
1933,10363
1921,10364
1942,10365
1913,10366
1895,10367
1953,10368
1950,10369
1946,10370
1966,10371
1938,10372
1981,10373
1966,10374
1963,10375
1999,10376
1978,10377
1969,10378
1948,10379
1944,10380
1911,10381
1899,10382
1939,10383
1951,10384
1922,10385
1883,10386
1859,10387
1932,10388
1938,10389
1904,10390
1920,10391
1963,10392
1923,10393
1968,10394
1984,10395
1983,10396
1975,10397
2004,10398
1939,10399
1948,10400
1955,10401
1971,10402
1876,10403
1928,10404
1921,10405
1928,10406
1922,10407
1891,10408
1921,10409
1931,10410
1948,10411
1983,10412
1976,10413
2011,10414
1955,10415
1998,10416
1959,10417
1958,10418
1963,10419
1936,10420
1916,10421
1931,10422
1929,10423
1902,10424
1908,10425
1917,10426
1910,10427
1931,10428
1931,10429
1943,10430
1969,10431
1945,10432
1948,10433
1951,10434
1930,10435
1977,10436
1976,10437
1950,10438
1952,10439
1935,10440
1905,10441
1920,10442
1923,10443
1905,10444
1898,10445
1932,10446
1931,10447
1928,10448
1875,10449
1934,10450
1944,10451
1948,10452
1961,10453
1952,10454
1963,10455
1949,10456
1972,10457
1968,10458
2006,10459
1952,10460
1938,10461
1924,10462
1946,10463
1930,10464
1944,10465
1933,10466
1904,10467
1916,10468
1967,10469
1943,10470
1916,10471
1972,10472
1964,10473
1978,10474
1963,10475
1932,10476
1934,10477
1980,10478
1962,10479
1924,10480
1919,10481
1959,10482
1906,10483
1882,10484
1915,10485
1895,10486
1954,10487
1929,10488
1943,10489
1990,10490
1982,10491
1952,10492
1960,10493
1958,10494
1981,10495
1963,10496
1985,10497
1962,10498
1996,10499
1976,10500
1947,10501
1916,10502
1920,10503
1939,10504
1961,10505
1927,10506
1937,10507
1931,10508
1926,10509
1937,10510
1928,10511
1936,10512
1945,10513
1925,10514
1960,10515
1961,10516
1971,10517
1968,10518
1968,10519
1950,10520
1932,10521
1903,10522
1935,10523
1943,10524
1921,10525
1936,10526
1942,10527
1927,10528
1946,10529
1946,10530
1962,10531
1918,10532
1970,10533
1980,10534
1961,10535
1968,10536
1970,10537
1957,10538
1964,10539
1942,10540
1944,10541
1954,10542
1927,10543
1920,10544
1954,10545
1928,10546
1956,10547
1915,10548
1942,10549
1971,10550
1939,10551
1932,10552
1964,10553
1965,10554
1969,10555
1959,10556
1954,10557
1935,10558
1932,10559
1955,10560
1953,10561
1971,10562
1900,10563
1921,10564
1944,10565
1941,10566
1939,10567
1917,10568
1990,10569
1955,10570
1963,10571
1980,10572
1973,10573
2004,10574
1980,10575
1966,10576
1963,10577
1967,10578
1955,10579
1939,10580
1947,10581
1932,10582
1899,10583
1916,10584
1919,10585
1926,10586
1959,10587
1932,10588
1900,10589
1955,10590
1921,10591
1952,10592
1935,10593
1969,10594
1927,10595
1996,10596
1964,10597
1960,10598
1981,10599
1950,10600
1946,10601
1962,10602
1943,10603
1937,10604
1919,10605
1934,10606
1941,10607
1959,10608
1967,10609
1944,10610
1945,10611
1975,10612
1951,10613
1994,10614
2009,10615
1979,10616
1959,10617
1974,10618
1920,10619
1930,10620
1956,10621
1931,10622
1941,10623
1882,10624
1937,10625
1942,10626
1893,10627
1928,10628
1969,10629
1910,10630
1942,10631
1952,10632
1976,10633
1961,10634
1954,10635
1966,10636
1953,10637
1911,10638
1934,10639
1946,10640
1937,10641
1932,10642
1927,10643
1938,10644
1889,10645
1894,10646
1920,10647
1913,10648
1924,10649
1957,10650
1955,10651
1945,10652
1936,10653
1984,10654
1936,10655
1950,10656
1957,10657
1993,10658
1944,10659
1957,10660
1923,10661
1947,10662
1919,10663
1970,10664
1926,10665
1947,10666
1923,10667
1924,10668
1929,10669
1944,10670
1977,10671
1951,10672
1956,10673
1958,10674
1975,10675
1977,10676
1923,10677
1940,10678
1971,10679
1903,10680
1952,10681
1923,10682
1906,10683
1930,10684
1906,10685
1946,10686
1928,10687
1935,10688
1958,10689
1956,10690
1931,10691
1983,10692
1984,10693
1951,10694
1991,10695
1970,10696
1986,10697
1942,10698
1977,10699
1955,10700
1920,10701
1936,10702
1915,10703
1922,10704
1936,10705
1923,10706
1916,10707
1928,10708
1948,10709
1948,10710
1944,10711
1939,10712
1959,10713
1955,10714
1953,10715
1961,10716
1945,10717
1966,10718
1947,10719
1925,10720
1934,10721
1959,10722
1927,10723
1925,10724
1922,10725
1947,10726
1935,10727
1928,10728
1922,10729
1948,10730
1943,10731
1945,10732
1967,10733
1970,10734
1989,10735
1972,10736
1971,10737
1956,10738
1956,10739
1928,10740
1916,10741
1915,10742
1925,10743
1948,10744
1915,10745
1911,10746
1967,10747
1923,10748
1928,10749
1974,10750
1938,10751
1955,10752
1968,10753
1956,10754
1964,10755
1977,10756
1968,10757
1899,10758
1955,10759
1940,10760
1951,10761
1932,10762
1926,10763
1914,10764
1924,10765
1949,10766
1912,10767
1927,10768
1924,10769
1929,10770
1934,10771
1962,10772
1952,10773
1991,10774
1944,10775
1950,10776
1928,10777
1933,10778
1963,10779
1946,10780
1975,10781
1923,10782
1927,10783
1918,10784
1938,10785
1954,10786
1950,10787
1932,10788
1967,10789
1900,10790
1930,10791
1975,10792
1976,10793
1952,10794
1947,10795
1980,10796
1975,10797
1951,10798
1937,10799
1949,10800
1937,10801
1935,10802
1938,10803
1967,10804
1929,10805
1932,10806
1927,10807
1912,10808
1982,10809
1958,10810
1966,10811
1984,10812
1962,10813
1991,10814
1942,10815
1945,10816
1933,10817
1911,10818
1972,10819
1931,10820
1916,10821
1940,10822
1937,10823
1938,10824
1909,10825
1902,10826
1927,10827
1952,10828
1966,10829
1963,10830
1964,10831
1965,10832
1926,10833
1954,10834
1941,10835
1972,10836
1955,10837
1940,10838
1959,10839
1995,10840
1928,10841
1928,10842
1916,10843
1916,10844
1960,10845
1891,10846
1942,10847
1932,10848
1939,10849
1971,10850
1912,10851
1935,10852
1950,10853
1963,10854
1960,10855
1908,10856
1927,10857
1950,10858
1923,10859
1971,10860
1956,10861
1911,10862
1980,10863
1879,10864
1928,10865
1941,10866
1939,10867
1936,10868
1952,10869
1960,10870
1965,10871
1960,10872
1971,10873
1959,10874
1942,10875
1952,10876
1980,10877
1972,10878
1936,10879
1964,10880
1945,10881
1932,10882
1932,10883
1940,10884
1969,10885
1964,10886
1947,10887
1923,10888
1938,10889
1921,10890
1961,10891
1956,10892
1988,10893
1996,10894
1967,10895
1969,10896
1983,10897
1957,10898
1960,10899
1944,10900
1919,10901
1937,10902
1929,10903
1952,10904
1941,10905
1924,10906
1945,10907
1912,10908
1949,10909
1953,10910
1948,10911
1987,10912
1985,10913
1955,10914
1962,10915
1972,10916
1945,10917
1946,10918
1918,10919
1939,10920
1962,10921
1949,10922
1955,10923
1905,10924
1901,10925
1917,10926
1932,10927
1947,10928
1979,10929
1955,10930
1993,10931
1975,10932
1962,10933
1977,10934
1918,10935
1962,10936
1946,10937
1996,10938
1947,10939
1935,10940
1969,10941
1926,10942
1920,10943
1949,10944
1921,10945
1912,10946
1916,10947
1982,10948
1955,10949
1962,10950
1966,10951
1956,10952
1996,10953
2004,10954
1983,10955
1985,10956
1945,10957
1945,10958
1958,10959
1937,10960
1933,10961
1932,10962
1939,10963
1911,10964
1922,10965
1919,10966
1914,10967
1945,10968
1951,10969
1964,10970
1980,10971
2023,10972
1968,10973
1996,10974
1969,10975
1973,10976
1959,10977
1954,10978
1949,10979
1944,10980
1945,10981
1934,10982
1941,10983
1940,10984
1939,10985
1920,10986
1967,10987
1924,10988
1955,10989
1968,10990
1951,10991
1979,10992
1962,10993
1965,10994
1919,10995
1953,10996
1962,10997
1970,10998
1998,10999
1924,11000
1941,11001
1944,11002
1884,11003
1934,11004
1957,11005
1956,11006
1948,11007
1960,11008
1946,11009
1986,11010
1947,11011
1956,11012
1983,11013
1959,11014
1997,11015
1972,11016
1943,11017
1950,11018
1957,11019
1935,11020
1921,11021
1936,11022
1931,11023
1931,11024
1934,11025
1956,11026
1945,11027
1940,11028
1929,11029
1994,11030
1988,11031
1968,11032
2001,11033
1987,11034
1955,11035
1982,11036
1965,11037
1949,11038
1951,11039
1932,11040
1962,11041
1965,11042
1925,11043
1927,11044
1949,11045
1932,11046
1950,11047
1953,11048
1939,11049
1960,11050
1976,11051
2007,11052
1981,11053
2001,11054
1955,11055
1958,11056
1954,11057
1968,11058
1944,11059
1963,11060
1932,11061
1936,11062
1966,11063
1913,11064
1957,11065
1934,11066
1913,11067
1951,11068
1999,11069
1935,11070
1955,11071
1962,11072
1945,11073
2023,11074
1994,11075
1963,11076
1995,11077
1999,11078
1914,11079
1941,11080
1940,11081
1931,11082
1956,11083
1947,11084
1925,11085
1959,11086
1951,11087
1972,11088
1993,11089
1955,11090
1959,11091
1969,11092
1967,11093
1998,11094
1991,11095
1980,11096
1983,11097
1937,11098
1956,11099
1967,11100
1951,11101
1940,11102
1951,11103
1954,11104
1943,11105
1941,11106
1946,11107
1965,11108
1949,11109
1939,11110
1981,11111
1976,11112
1960,11113
1959,11114
1958,11115
1987,11116
1954,11117
1958,11118
1903,11119
1986,11120
1938,11121
1930,11122
1955,11123
1930,11124
1941,11125
1942,11126
1943,11127
1973,11128
1957,11129
1947,11130
2015,11131
1990,11132
1970,11133
1995,11134
1977,11135
1957,11136
1965,11137
1965,11138
1939,11139
1949,11140
1953,11141
1955,11142
1917,11143
1925,11144
1974,11145
1977,11146
1947,11147
1968,11148
1969,11149
1961,11150
1968,11151
1984,11152
1989,11153
2003,11154
1988,11155
1965,11156
1982,11157
1994,11158
1973,11159
1962,11160
1931,11161
1929,11162
1952,11163
1939,11164
1945,11165
1975,11166
1927,11167
1974,11168
1972,11169
1969,11170
1987,11171
1989,11172
1980,11173
1990,11174
2006,11175
1991,11176
1959,11177
1933,11178
1944,11179
1909,11180
1928,11181
1968,11182
1932,11183
1944,11184
1944,11185
1961,11186
1952,11187
1996,11188
1932,11189
1983,11190
1952,11191
1988,11192
2000,11193
1947,11194
1985,11195
1976,11196
1971,11197
1941,11198
1965,11199
1965,11200
1942,11201
1959,11202
1924,11203
1984,11204
1966,11205
1946,11206
1948,11207
1936,11208
1945,11209
1962,11210
1972,11211
2004,11212
1983,11213
2016,11214
1964,11215
1972,11216
1980,11217
1987,11218
1962,11219
1946,11220
1964,11221
1951,11222
1920,11223
1907,11224
1923,11225
1939,11226
1958,11227
1966,11228
1957,11229
1994,11230
1972,11231
1975,11232
1954,11233
1963,11234
2001,11235
1976,11236
1970,11237
1993,11238
1990,11239
1929,11240
1964,11241
1952,11242
1938,11243
1966,11244
1951,11245
1951,11246
1959,11247
1959,11248
1980,11249
1982,11250
1963,11251
2005,11252
1982,11253
1966,11254
2013,11255
1984,11256
1970,11257
1962,11258
1959,11259
1984,11260
1938,11261
1939,11262
1971,11263
1948,11264
1947,11265
1947,11266
1937,11267
1950,11268
1959,11269
1975,11270
1972,11271
1990,11272
1988,11273
1990,11274
1964,11275
1951,11276
1961,11277
1938,11278
1959,11279
1964,11280
1939,11281
1956,11282
1935,11283
1947,11284
1934,11285
1911,11286
1942,11287
1986,11288
1963,11289
1979,11290
1976,11291
1975,11292
1979,11293
1961,11294
1986,11295
1977,11296
1999,11297
1949,11298
1971,11299
1963,11300
1956,11301
1954,11302
1941,11303
1939,11304
1932,11305
1950,11306
1974,11307
1953,11308
1962,11309
1967,11310
1975,11311
1988,11312
1991,11313
1974,11314
1962,11315
1993,11316
1975,11317
1940,11318
1976,11319
1948,11320
1942,11321
1956,11322
1982,11323
1967,11324
1940,11325
1976,11326
1934,11327
1935,11328
1939,11329
1979,11330
1931,11331
1959,11332
1978,11333
1999,11334
1978,11335
1988,11336
1970,11337
1931,11338
1980,11339
1941,11340
1945,11341
1955,11342
1939,11343
1945,11344
1941,11345
1977,11346
1950,11347
1944,11348
1974,11349
1952,11350
2001,11351
2011,11352
1996,11353
1963,11354
1959,11355
1941,11356
1971,11357
1985,11358
1941,11359
1976,11360
1922,11361
1932,11362
1961,11363
1943,11364
1939,11365
1922,11366
1958,11367
1955,11368
1929,11369
2004,11370
2019,11371
1985,11372
1988,11373
1956,11374
1984,11375
1994,11376
1971,11377
1965,11378
1951,11379
1925,11380
1938,11381
1969,11382
1951,11383
1944,11384
1965,11385
1956,11386
1959,11387
1992,11388
1974,11389
1974,11390
1963,11391
1955,11392
1951,11393
1983,11394
1992,11395
2000,11396
1950,11397
1945,11398
1971,11399
1957,11400
1942,11401
1942,11402
1963,11403
1944,11404
1948,11405
1941,11406
1956,11407
1980,11408
1962,11409
2001,11410
1976,11411
1988,11412
1984,11413
1976,11414
1991,11415
1956,11416
1950,11417
1968,11418
1955,11419
1968,11420
1941,11421
1935,11422
1952,11423
1954,11424
1941,11425
1936,11426
1956,11427
1924,11428
1976,11429
1966,11430
1955,11431
1974,11432
1991,11433
1976,11434
1939,11435
1957,11436
1961,11437
1964,11438
1965,11439
1921,11440
1960,11441
1956,11442
1954,11443
1940,11444
1953,11445
1953,11446
1978,11447
1974,11448
2005,11449
1965,11450
1940,11451
1968,11452
1946,11453
1996,11454
1962,11455
1979,11456
1974,11457
1968,11458
1972,11459
1967,11460
1965,11461
1944,11462
1927,11463
1980,11464
1991,11465
1922,11466
1938,11467
1958,11468
1965,11469
1959,11470
1980,11471
2001,11472
1943,11473
1955,11474
1969,11475
2017,11476
1951,11477
1962,11478
1963,11479
1948,11480
1912,11481
1962,11482
1950,11483
1955,11484
1939,11485
1942,11486
1936,11487
1954,11488
1985,11489
1967,11490
1960,11491
1982,11492
1984,11493
1966,11494
1978,11495
1984,11496
1939,11497
1935,11498
1951,11499
1952,11500
1945,11501
1931,11502
1960,11503
1936,11504
1948,11505
1954,11506
1951,11507
1922,11508
1948,11509
1940,11510
1955,11511
1963,11512
1951,11513
1972,11514
1989,11515
1978,11516
1950,11517
1940,11518
1968,11519
1989,11520
1951,11521
1935,11522
1933,11523
1964,11524
1928,11525
1962,11526
1972,11527
1991,11528
2011,11529
1953,11530
1996,11531
1947,11532
1966,11533
1972,11534
1985,11535
2010,11536
1984,11537
1977,11538
1960,11539
1949,11540
1945,11541
1927,11542
1979,11543
1959,11544
1951,11545
1956,11546
1947,11547
1951,11548
1963,11549
1969,11550
2029,11551
1974,11552
1952,11553
1974,11554
1954,11555
1987,11556
1991,11557
1909,11558
1951,11559
1966,11560
1944,11561
1932,11562
1919,11563
1988,11564
1940,11565
1965,11566
1990,11567
1932,11568
1990,11569
1971,11570
1947,11571
1979,11572
1981,11573
1997,11574
1967,11575
1995,11576
1955,11577
1969,11578
1942,11579
1925,11580
1930,11581
1961,11582
1908,11583
1924,11584
1980,11585
1966,11586
1953,11587
1988,11588
1959,11589
1962,11590
1983,11591
1966,11592
1968,11593
1974,11594
1976,11595
1948,11596
1987,11597
1956,11598
1966,11599
1948,11600
1971,11601
1959,11602
1937,11603
1924,11604
1947,11605
1940,11606
1946,11607
1952,11608
1973,11609
1984,11610
1939,11611
1959,11612
1980,11613
1968,11614
1952,11615
1936,11616
1978,11617
1999,11618
1945,11619
1920,11620
1970,11621
1945,11622
1945,11623
1917,11624
1965,11625
1920,11626
1954,11627
1964,11628
1940,11629
1919,11630
1960,11631
1967,11632
1979,11633
1972,11634
1978,11635
1965,11636
1940,11637
1951,11638
1958,11639
1959,11640
1899,11641
1976,11642
1936,11643
1945,11644
1919,11645
1954,11646
1944,11647
1968,11648
1944,11649
1958,11650
1974,11651
1968,11652
1996,11653
1959,11654
1957,11655
1984,11656
1964,11657
1955,11658
1982,11659
1992,11660
1931,11661
1939,11662
1974,11663
1931,11664
1935,11665
1952,11666
1923,11667
1952,11668
1966,11669
1996,11670
1978,11671
1976,11672
1988,11673
1976,11674
1988,11675
1962,11676
1934,11677
1953,11678
1963,11679
1938,11680
1963,11681
1953,11682
1919,11683
1970,11684
1927,11685
1967,11686
1944,11687
1980,11688
1944,11689
1973,11690
1987,11691
2012,11692
2008,11693
1976,11694
1983,11695
1992,11696
1958,11697
1956,11698
1959,11699
1968,11700
1945,11701
1945,11702
1965,11703
1960,11704
1952,11705
1961,11706
1908,11707
1943,11708
1947,11709
1961,11710
1964,11711
1959,11712
1971,11713
1980,11714
2001,11715
1972,11716
1953,11717
1968,11718
1965,11719
1943,11720
1919,11721
1923,11722
1924,11723
1925,11724
1920,11725
1958,11726
1966,11727
1943,11728
1954,11729
1975,11730
1970,11731
1975,11732
1971,11733
1965,11734
1954,11735
1953,11736
1974,11737
1964,11738
1955,11739
1947,11740
1949,11741
1963,11742
1917,11743
1987,11744
1959,11745
1946,11746
1903,11747
1952,11748
1922,11749
1987,11750
2002,11751
1985,11752
2013,11753
1966,11754
1983,11755
1973,11756
1957,11757
1940,11758
1937,11759
1920,11760
1916,11761
1952,11762
1925,11763
1978,11764
1959,11765
1945,11766
1936,11767
1950,11768
2003,11769
1953,11770
1978,11771
1966,11772
1966,11773
1937,11774
1967,11775
1989,11776
1947,11777
1936,11778
1963,11779
1952,11780
1952,11781
1921,11782
1936,11783
1933,11784
1956,11785
1943,11786
1962,11787
1961,11788
1962,11789
2000,11790
1959,11791
1987,11792
1967,11793
1959,11794
1993,11795
1946,11796
1980,11797
1985,11798
1955,11799
1933,11800
1947,11801
1937,11802
1942,11803
1928,11804
1945,11805
1945,11806
1937,11807
1947,11808
1947,11809
1945,11810
1969,11811
1983,11812
1987,11813
1993,11814
1978,11815
1971,11816
1958,11817
1960,11818
1936,11819
1947,11820
1958,11821
1920,11822
1917,11823
1921,11824
1984,11825
1952,11826
1955,11827
1917,11828
1943,11829
1970,11830
1928,11831
1967,11832
1992,11833
1960,11834
1961,11835
1974,11836
1972,11837
1967,11838
1955,11839
1928,11840
1947,11841
1954,11842
1959,11843
1940,11844
1933,11845
1954,11846
1922,11847
1941,11848
1952,11849
1976,11850
1988,11851
1973,11852
1982,11853
1994,11854
1954,11855
1980,11856
1964,11857
1985,11858
1963,11859
1956,11860
1942,11861
1946,11862
1925,11863
1936,11864
1909,11865
1954,11866
1952,11867
1949,11868
1969,11869
1986,11870
1987,11871
1988,11872
2015,11873
1979,11874
1961,11875
1977,11876
1985,11877
1981,11878
1959,11879
1960,11880
1933,11881
1956,11882
1935,11883
1957,11884
1950,11885
1958,11886
1928,11887
1943,11888
1952,11889
1988,11890
1962,11891
1960,11892
1978,11893
1944,11894
1960,11895
1944,11896
1966,11897
1935,11898
1934,11899
1921,11900
1929,11901
1937,11902
1961,11903
1941,11904
1938,11905
1942,11906
1982,11907
1986,11908
1975,11909
1939,11910
1969,11911
1931,11912
1942,11913
1973,11914
1968,11915
1943,11916
1963,11917
1948,11918
1944,11919
1969,11920
1961,11921
1944,11922
1948,11923
1968,11924
1953,11925
1949,11926
1939,11927
2002,11928
1997,11929
1969,11930
1961,11931
2004,11932
1950,11933
1927,11934
1977,11935
1952,11936
1956,11937
1947,11938
1946,11939
1968,11940
1928,11941
1903,11942
1930,11943
1945,11944
1957,11945
1939,11946
1971,11947
1975,11948
1962,11949
1967,11950
1950,11951
1977,11952
1980,11953
1948,11954
1936,11955
1968,11956
1954,11957
1921,11958
1946,11959
1947,11960
1935,11961
1950,11962
1926,11963
1972,11964
1966,11965
1932,11966
2006,11967
1937,11968
1955,11969
1985,11970
1943,11971
1974,11972
1971,11973
1977,11974
1961,11975
1991,11976
1951,11977
1954,11978
1952,11979
1948,11980
1949,11981
1944,11982
1931,11983
1948,11984
1959,11985
1949,11986
1948,11987
1935,11988
2006,11989
1970,11990
1990,11991
2002,11992
1972,11993
1992,11994
2005,11995
1974,11996
1989,11997
1951,11998
1957,11999
1940,12000
1920,12001
1973,12002
1941,12003
1983,12004
1928,12005
1947,12006
1968,12007
1965,12008
1947,12009
1971,12010
1984,12011
1952,12012
1992,12013
1967,12014
1951,12015
1943,12016
1947,12017
1969,12018
1952,12019
1960,12020
1950,12021
1960,12022
1905,12023
1919,12024
1931,12025
1906,12026
1947,12027
1971,12028
1993,12029
1956,12030
1985,12031
1976,12032
1960,12033
1970,12034
1949,12035
1961,12036
1953,12037
1967,12038
1937,12039
1951,12040
1940,12041
1941,12042
1946,12043
1916,12044
1939,12045
1952,12046
1960,12047
1964,12048
1985,12049
1960,12050
1968,12051
1989,12052
1995,12053
1976,12054
1965,12055
1931,12056
1938,12057
1913,12058
1933,12059
1926,12060
1927,12061
1949,12062
1932,12063
1944,12064
1936,12065
1944,12066
1941,12067
1970,12068
1968,12069
1973,12070
1980,12071
1985,12072
1992,12073
1987,12074
1968,12075
1940,12076
1960,12077
1954,12078
1960,12079
1947,12080
1966,12081
1945,12082
1895,12083
1931,12084
1936,12085
1957,12086
1968,12087
1946,12088
1979,12089
1950,12090
1975,12091
1961,12092
1960,12093
1938,12094
1971,12095
1959,12096
1926,12097
1959,12098
1955,12099
1906,12100
1910,12101
1955,12102
1944,12103
1971,12104
1961,12105
1957,12106
1983,12107
1967,12108
1978,12109
1958,12110
1965,12111
1980,12112
1997,12113
1986,12114
1972,12115
1978,12116
1927,12117
1932,12118
1953,12119
1960,12120
1967,12121
1936,12122
1959,12123
1945,12124
1918,12125
1932,12126
1945,12127
1973,12128
1959,12129
1948,12130
1990,12131
1971,12132
1994,12133
1958,12134
1976,12135
1963,12136
1977,12137
1944,12138
1952,12139
1955,12140
1976,12141
1955,12142
1972,12143
1945,12144
1925,12145
1920,12146
1975,12147
1969,12148
1984,12149
1944,12150
1940,12151
1923,12152
1952,12153
1993,12154
1988,12155
1987,12156
1981,12157
1973,12158
1966,12159
1934,12160
1924,12161
1919,12162
1926,12163
1948,12164
1933,12165
1934,12166
1968,12167
1959,12168
1984,12169
1956,12170
1968,12171
1967,12172
1972,12173
1962,12174
1939,12175
1985,12176
1946,12177
1969,12178
1951,12179
1953,12180
1918,12181
1908,12182
1897,12183
1935,12184
1951,12185
1942,12186
1983,12187
1949,12188
1959,12189
1964,12190
1989,12191
1964,12192
1989,12193
1981,12194
1971,12195
1963,12196
1927,12197
1914,12198
1943,12199
1942,12200
1909,12201
1953,12202
1952,12203
1935,12204
1937,12205
1936,12206
1932,12207
1954,12208
1952,12209
1932,12210
1987,12211
1951,12212
1974,12213
1976,12214
1963,12215
1940,12216
1935,12217
1928,12218
1932,12219
1958,12220
1962,12221
1930,12222
1928,12223
1963,12224
1966,12225
1899,12226
1927,12227
1954,12228
1964,12229
1965,12230
1976,12231
1974,12232
1983,12233
1948,12234
1991,12235
1954,12236
1970,12237
1925,12238
1951,12239
1955,12240
1952,12241
1947,12242
1912,12243
1950,12244
1917,12245
1965,12246
1988,12247
1986,12248
1981,12249
1959,12250
1953,12251
1921,12252
1974,12253
1940,12254
1968,12255
1986,12256
1946,12257
1938,12258
1920,12259
1914,12260
1930,12261
1928,12262
1965,12263
1983,12264
1952,12265
1922,12266
1936,12267
1971,12268
1956,12269
1963,12270
1972,12271
1999,12272
1991,12273
1986,12274
1980,12275
1988,12276
1957,12277
1967,12278
1933,12279
1910,12280
1954,12281
1931,12282
1937,12283
1972,12284
1918,12285
1956,12286
1960,12287
1945,12288
1939,12289
1949,12290
1973,12291
1984,12292
1983,12293
1994,12294
1948,12295
1954,12296
1985,12297
1921,12298
1969,12299
1943,12300
1936,12301
1931,12302
1904,12303
1927,12304
1961,12305
1945,12306
1963,12307
1951,12308
1936,12309
1977,12310
1974,12311
1988,12312
1985,12313
1968,12314
1973,12315
1968,12316
1993,12317
1942,12318
1932,12319
1942,12320
1930,12321
1939,12322
1911,12323
1929,12324
1924,12325
1942,12326
1967,12327
1931,12328
1975,12329
1988,12330
1966,12331
1968,12332
1969,12333
1989,12334
1967,12335
1965,12336
1991,12337
1922,12338
1936,12339
1913,12340
1921,12341
1943,12342
1971,12343
1938,12344
1923,12345
1935,12346
1930,12347
1962,12348
2008,12349
1944,12350
1984,12351
1954,12352
1994,12353
1966,12354
1954,12355
1973,12356
1964,12357
1948,12358
1939,12359
1899,12360
1940,12361
1954,12362
1932,12363
1970,12364
1937,12365
1938,12366
1945,12367
1910,12368
1968,12369
1959,12370
1966,12371
1974,12372
1998,12373
1975,12374
1946,12375
1978,12376
1966,12377
1968,12378
1940,12379
1952,12380
1928,12381
1953,12382
1909,12383
1951,12384
1920,12385
1944,12386
1953,12387
1978,12388
1964,12389
1969,12390
1998,12391
1996,12392
1977,12393
1953,12394
1983,12395
1952,12396
1949,12397
1958,12398
1927,12399
1933,12400
1902,12401
1928,12402
1925,12403
1968,12404
1945,12405
1943,12406
1973,12407
1963,12408
1970,12409
1927,12410
1941,12411
1972,12412
2003,12413
1984,12414
1982,12415
1995,12416
1956,12417
1955,12418
1944,12419
1949,12420
1922,12421
1928,12422
1952,12423
1963,12424
1939,12425
1992,12426
1952,12427
1972,12428
1967,12429
1979,12430
1962,12431
1968,12432
1990,12433
2002,12434
1945,12435
1990,12436
1967,12437
1947,12438
1964,12439
1931,12440
1941,12441
1919,12442
1938,12443
1960,12444
1958,12445
1927,12446
1948,12447
1951,12448
1977,12449
2006,12450
1954,12451
1965,12452
1986,12453
1961,12454
1938,12455
1945,12456
1968,12457
1944,12458
1959,12459
1917,12460
1948,12461
1934,12462
1945,12463
1961,12464
1942,12465
1943,12466
1972,12467
1910,12468
1930,12469
1966,12470
1988,12471
1969,12472
1976,12473
1965,12474
1967,12475
1960,12476
1976,12477
1987,12478
1955,12479
1916,12480
1887,12481
1904,12482
1940,12483
1928,12484
1948,12485
1951,12486
1961,12487
1964,12488
1978,12489
1975,12490
1958,12491
1971,12492
1976,12493
1954,12494
1952,12495
1967,12496
1945,12497
1943,12498
1960,12499
1897,12500
1933,12501
1942,12502
1948,12503
1937,12504
1958,12505
1940,12506
1966,12507
1958,12508
1980,12509
1961,12510
1952,12511
1949,12512
1971,12513
1963,12514
1982,12515
2016,12516
1926,12517
1950,12518
1924,12519
1903,12520
1937,12521
1940,12522
1965,12523
1953,12524
1922,12525
1964,12526
1913,12527
1908,12528
1955,12529
1948,12530
1961,12531
1977,12532
1980,12533
1954,12534
1953,12535
1965,12536
1930,12537
1961,12538
1922,12539
1945,12540
1941,12541
1948,12542
1933,12543
1960,12544
1935,12545
1928,12546
1959,12547
1954,12548
1945,12549
1948,12550
1993,12551
1983,12552
1973,12553
1935,12554
1942,12555
1964,12556
1944,12557
1931,12558
1921,12559
1926,12560
1926,12561
1966,12562
1943,12563
1899,12564
1940,12565
1945,12566
1986,12567
1952,12568
1962,12569
1959,12570
1989,12571
1937,12572
1937,12573
1941,12574
1969,12575
1974,12576
1940,12577
1976,12578
1961,12579
1949,12580
1920,12581
1901,12582
1975,12583
1900,12584
1939,12585
1952,12586
1927,12587
1944,12588
1948,12589
1985,12590
1968,12591
1963,12592
1957,12593
1971,12594
1949,12595
1954,12596
1961,12597
1938,12598
1939,12599
1895,12600
1943,12601
1970,12602
1949,12603
1913,12604
1963,12605
1932,12606
1950,12607
1972,12608
1965,12609
1970,12610
1976,12611
1964,12612
1960,12613
1978,12614
1976,12615
1948,12616
1954,12617
1958,12618
1922,12619
1959,12620
1953,12621
1951,12622
1963,12623
1931,12624
1956,12625
1978,12626
1994,12627
1968,12628
1985,12629
1983,12630
1928,12631
1976,12632
1953,12633
1991,12634
1965,12635
1943,12636
1978,12637
1957,12638
1973,12639
1956,12640
1938,12641
1941,12642
1937,12643
1923,12644
1936,12645
1975,12646
1966,12647
1961,12648
1967,12649
1972,12650
1960,12651
1980,12652
1965,12653
1972,12654
1963,12655
1965,12656
1923,12657
1942,12658
1953,12659
1970,12660
1956,12661
1935,12662
1929,12663
1921,12664
1915,12665
1931,12666
1927,12667
1973,12668
1952,12669
1988,12670
1966,12671
1978,12672
1958,12673
1964,12674
1923,12675
1924,12676
1940,12677
1953,12678
1933,12679
1948,12680
1936,12681
1943,12682
1943,12683
1949,12684
1947,12685
1952,12686
1957,12687
1972,12688
1944,12689
1976,12690
1974,12691
1947,12692
1948,12693
1986,12694
1962,12695
1919,12696
1943,12697
1976,12698
1948,12699
1923,12700
1925,12701
1927,12702
1907,12703
1929,12704
1941,12705
1967,12706
1961,12707
1947,12708
1973,12709
1968,12710
1963,12711
1973,12712
1921,12713
1943,12714
1968,12715
1919,12716
1939,12717
1937,12718
1944,12719
1919,12720
1919,12721
1895,12722
1941,12723
1920,12724
1925,12725
1944,12726
1973,12727
1952,12728
1963,12729
1970,12730
1983,12731
1968,12732
1951,12733
1940,12734
1939,12735
1938,12736
1942,12737
1928,12738
1942,12739
1948,12740
1953,12741
1947,12742
1946,12743
1962,12744
1968,12745
1935,12746
