1872,1340
1890,1341
1889,1342
1912,1343
1901,1344
1915,1345
1904,1346
1903,1347
1904,1348
1870,1349
1871,1350
1852,1351
1873,1352
1863,1353
1825,1354
1810,1355
1860,1356
1846,1357
1851,1358
1859,1359
1890,1360
1906,1361
1904,1362
1914,1363
1922,1364
1915,1365
1922,1366
1877,1367
1866,1368
1903,1369
1863,1370
1864,1371
1860,1372
1849,1373
1879,1374
1840,1375
1836,1376
1854,1377
1871,1378
1877,1379
1865,1380
1871,1381
1914,1382
1932,1383
1945,1384
1899,1385
1902,1386
1909,1387
1894,1388
1863,1389
1873,1390
1856,1391
1854,1392
1848,1393
1850,1394
1801,1395
1869,1396
1874,1397
1862,1398
1855,1399
1892,1400
1892,1401
1895,1402
1900,1403
1893,1404
1950,1405
1920,1406
1904,1407
1916,1408
1878,1409
1871,1410
1851,1411
1846,1412
1876,1413
1847,1414
1864,1415
1843,1416
1858,1417
1881,1418
1865,1419
1886,1420
1887,1421
1900,1422
1900,1423
1924,1424
1910,1425
1884,1426
1911,1427
1867,1428
1877,1429
1844,1430
1874,1431
1880,1432
1872,1433
1839,1434
1868,1435
1851,1436
1831,1437
1871,1438
1884,1439
1864,1440
1900,1441
1916,1442
1915,1443
1942,1444
1917,1445
1915,1446
1918,1447
1904,1448
1853,1449
1883,1450
1849,1451
1843,1452
1860,1453
1833,1454
1857,1455
1871,1456
1867,1457
1874,1458
1900,1459
1861,1460
1935,1461
1916,1462
1940,1463
1938,1464
1939,1465
1944,1466
1900,1467
1880,1468
1891,1469
1875,1470
1855,1471
1875,1472
1839,1473
1840,1474
1867,1475
1890,1476
1868,1477
1876,1478
1855,1479
1912,1480
1904,1481
1922,1482
1923,1483
1907,1484
1914,1485
1904,1486
1909,1487
1893,1488
1879,1489
1850,1490
1864,1491
1850,1492
1843,1493
1861,1494
1876,1495
1858,1496
1886,1497
1876,1498
1890,1499
1900,1500
1909,1501
1918,1502
1906,1503
1927,1504
1889,1505
1960,1506
1895,1507
1932,1508
1874,1509
1870,1510
1874,1511
1854,1512
1862,1513
1869,1514
1880,1515
1898,1516
1854,1517
1853,1518
1890,1519
1900,1520
1912,1521
1875,1522
1925,1523
1943,1524
1931,1525
1930,1526
1897,1527
1887,1528
1909,1529
1912,1530
1834,1531
1853,1532
1827,1533
1870,1534
1873,1535
1852,1536
1875,1537
1854,1538
1873,1539
1920,1540
1883,1541
1904,1542
1913,1543
1922,1544
1957,1545
1940,1546
1910,1547
1887,1548
1883,1549
1880,1550
1887,1551
1905,1552
1855,1553
1868,1554
1834,1555
1853,1556
1866,1557
1876,1558
1906,1559
1868,1560
1903,1561
1894,1562
1933,1563
1952,1564
1950,1565
1930,1566
1912,1567
1920,1568
1895,1569
1863,1570
1869,1571
1870,1572
1888,1573
1868,1574
1855,1575
1888,1576
1859,1577
1905,1578
1891,1579
1900,1580
1933,1581
1952,1582
1903,1583
1937,1584
1943,1585
1916,1586
1920,1587
1923,1588
1895,1589
1867,1590
1846,1591
1860,1592
1878,1593
1881,1594
1855,1595
1855,1596
1867,1597
1846,1598
1913,1599
1890,1600
1908,1601
1944,1602
1944,1603
1937,1604
1948,1605
1923,1606
1935,1607
1946,1608
1932,1609
1912,1610
1860,1611
1855,1612
1887,1613
1827,1614
1892,1615
1856,1616
1865,1617
1850,1618
1894,1619
1922,1620
1939,1621
1924,1622
1906,1623
1952,1624
1959,1625
1970,1626
1909,1627
1927,1628
1941,1629
1866,1630
1905,1631
1880,1632
1857,1633
1867,1634
1856,1635
1872,1636
1869,1637
1855,1638
1926,1639
1897,1640
1916,1641
1951,1642
1931,1643
1911,1644
1919,1645
1919,1646
1895,1647
1932,1648
1936,1649
1904,1650
1867,1651
1856,1652
1912,1653
1856,1654
1889,1655
1862,1656
1897,1657
1869,1658
1888,1659
1922,1660
1927,1661
1946,1662
1966,1663
1978,1664
1917,1665
1934,1666
1885,1667
1909,1668
1915,1669
1894,1670
1871,1671
1852,1672
1884,1673
1862,1674
1855,1675
1903,1676
1889,1677
1898,1678
1928,1679
1927,1680
1903,1681
1926,1682
1983,1683
1960,1684
1907,1685
1940,1686
1930,1687
1932,1688
1888,1689
1906,1690
1874,1691
1882,1692
1882,1693
1866,1694
1859,1695
1874,1696
1889,1697
1910,1698
1921,1699
1940,1700
1931,1701
1904,1702
1914,1703
1953,1704
1951,1705
1942,1706
1935,1707
1911,1708
1905,1709
1899,1710
1904,1711
1859,1712
1890,1713
1858,1714
1873,1715
1892,1716
1906,1717
1898,1718
1912,1719
1922,1720
1952,1721
1959,1722
1947,1723
1982,1724
1980,1725
1971,1726
1945,1727
1923,1728
1903,1729
1871,1730
1903,1731
1889,1732
1868,1733
1892,1734
1872,1735
1841,1736
1890,1737
1884,1738
1923,1739
1925,1740
1928,1741
1939,1742
1971,1743
1946,1744
1926,1745
1934,1746
1950,1747
1959,1748
1900,1749
1871,1750
1882,1751
1863,1752
1858,1753
1859,1754
1853,1755
1871,1756
1890,1757
1916,1758
1877,1759
1924,1760
1949,1761
1960,1762
1936,1763
1951,1764
1949,1765
1964,1766
1983,1767
1968,1768
1910,1769
1906,1770
1909,1771
1851,1772
1862,1773
1856,1774
1903,1775
1888,1776
1891,1777
1931,1778
1906,1779
1933,1780
1955,1781
1965,1782
1961,1783
1959,1784
1953,1785
1940,1786
1933,1787
1918,1788
1920,1789
1913,1790
1899,1791
1893,1792
1877,1793
1873,1794
1879,1795
1891,1796
1884,1797
1931,1798
1943,1799
1932,1800
1946,1801
1979,1802
1983,1803
1989,1804
1974,1805
1958,1806
1927,1807
1927,1808
1952,1809
1879,1810
1873,1811
1859,1812
1877,1813
1847,1814
1856,1815
1863,1816
1871,1817
1880,1818
1929,1819
1948,1820
1935,1821
1977,1822
2005,1823
1959,1824
1995,1825
1941,1826
1935,1827
1930,1828
1895,1829
1919,1830
1889,1831
1887,1832
1891,1833
1880,1834
1842,1835
1860,1836
1883,1837
1889,1838
1889,1839
1924,1840
1921,1841
1948,1842
1960,1843
1956,1844
1986,1845
1939,1846
1955,1847
1937,1848
1927,1849
1908,1850
1884,1851
1899,1852
1899,1853
1868,1854
1870,1855
1882,1856
1909,1857
1915,1858
1969,1859
1912,1860
1951,1861
1976,1862
1954,1863
1948,1864
1960,1865
1927,1866
1903,1867
1939,1868
1909,1869
1887,1870
1898,1871
1890,1872
1892,1873
1896,1874
1877,1875
1892,1876
1891,1877
1887,1878
1894,1879
1942,1880
1947,1881
1926,1882
1969,1883
1956,1884
1945,1885
1975,1886
1959,1887
1928,1888
1921,1889
1932,1890
1887,1891
1879,1892
1912,1893
1877,1894
1866,1895
1879,1896
1918,1897
1913,1898
1900,1899
1917,1900
1943,1901
1969,1902
1950,1903
1986,1904
1975,1905
1917,1906
1974,1907
1953,1908
1938,1909
1902,1910
1889,1911
1869,1912
1872,1913
1853,1914
1924,1915
1867,1916
1903,1917
1922,1918
1926,1919
1932,1920
1931,1921
1932,1922
1944,1923
1957,1924
1977,1925
1969,1926
1961,1927
1923,1928
1926,1929
1919,1930
1912,1931
1855,1932
1904,1933
1866,1934
1905,1935
1916,1936
1890,1937
1926,1938
1916,1939
1959,1940
1948,1941
1968,1942
1946,1943
1956,1944
1983,1945
1944,1946
1945,1947
1943,1948
1903,1949
1884,1950
1890,1951
1876,1952
1860,1953
1891,1954
1900,1955
1889,1956
1923,1957
1934,1958
1945,1959
1942,1960
1933,1961
1962,1962
1983,1963
1957,1964
1961,1965
1980,1966
1974,1967
1930,1968
1927,1969
1917,1970
1883,1971
1850,1972
1886,1973
1912,1974
1870,1975
1895,1976
1886,1977
1913,1978
1939,1979
1923,1980
1955,1981
1967,1982
1979,1983
1967,1984
1983,1985
1928,1986
1963,1987
1925,1988
1933,1989
1928,1990
1907,1991
1931,1992
1892,1993
1895,1994
1880,1995
1880,1996
1922,1997
1926,1998
1954,1999
1925,2000
1951,2001
1944,2002
1984,2003
1985,2004
2008,2005
1944,2006
1961,2007
1964,2008
1929,2009
1897,2010
1892,2011
1894,2012
1891,2013
1896,2014
1883,2015
1906,2016
1906,2017
1949,2018
1898,2019
1957,2020
1976,2021
1964,2022
1975,2023
1987,2024
1962,2025
1953,2026
1944,2027
1932,2028
1955,2029
1906,2030
1924,2031
1880,2032
1933,2033
1893,2034
1913,2035
1900,2036
1875,2037
1935,2038
1922,2039
1924,2040
1938,2041
1965,2042
1950,2043
1987,2044
1952,2045
1945,2046
1958,2047
1914,2048
1863,2049
1915,2050
1920,2051
1893,2052
1881,2053
1888,2054
1908,2055
1847,2056
1894,2057
1947,2058
1936,2059
1935,2060
1934,2061
1950,2062
1969,2063
1981,2064
1967,2065
1910,2066
1927,2067
1921,2068
1889,2069
1883,2070
1912,2071
1913,2072
1898,2073
1902,2074
1895,2075
1878,2076
1888,2077
1896,2078
1905,2079
1951,2080
1941,2081
1967,2082
1939,2083
1981,2084
1939,2085
1935,2086
1919,2087
1903,2088
1912,2089
1906,2090
1896,2091
1868,2092
1899,2093
1906,2094
1899,2095
1926,2096
1893,2097
1937,2098
1931,2099
1948,2100
1945,2101
1967,2102
1991,2103
1988,2104
1967,2105
1971,2106
1972,2107
1938,2108
1936,2109
1902,2110
1910,2111
1903,2112
1902,2113
1923,2114
1859,2115
1911,2116
1901,2117
1876,2118
1936,2119
1906,2120
1933,2121
1907,2122
1936,2123
1978,2124
1965,2125
1957,2126
1951,2127
1940,2128
1909,2129
1894,2130
1903,2131
1859,2132
1904,2133
1903,2134
1887,2135
1903,2136
1899,2137
1922,2138
1948,2139
1897,2140
1932,2141
1953,2142
1982,2143
1975,2144
1962,2145
1939,2146
1955,2147
1943,2148
1896,2149
1908,2150
1873,2151
1870,2152
1865,2153
1890,2154
1915,2155
1890,2156
1892,2157
1903,2158
1941,2159
1926,2160
1952,2161
1914,2162
1938,2163
1964,2164
1958,2165
1993,2166
1980,2167
1924,2168
1915,2169
1891,2170
1877,2171
1844,2172
1858,2173
1861,2174
1901,2175
1859,2176
1905,2177
1918,2178
1922,2179
1960,2180
1948,2181
1929,2182
1967,2183
1938,2184
1974,2185
1960,2186
1950,2187
1947,2188
1922,2189
1932,2190
1876,2191
1896,2192
1920,2193
1891,2194
1886,2195
1903,2196
1887,2197
1928,2198
1920,2199
1944,2200
1975,2201
1974,2202
1964,2203
1966,2204
1926,2205
1960,2206
1923,2207
1919,2208
1911,2209
1925,2210
1913,2211
1901,2212
1911,2213
1922,2214
1879,2215
1887,2216
1880,2217
1897,2218
1937,2219
1930,2220
1954,2221
1935,2222
1945,2223
1991,2224
1944,2225
1937,2226
1919,2227
1962,2228
1926,2229
1888,2230
1895,2231
1890,2232
1899,2233
1887,2234
1856,2235
1918,2236
1892,2237
1905,2238
1931,2239
1967,2240
1999,2241
1962,2242
1995,2243
1964,2244
1972,2245
1948,2246
1975,2247
1915,2248
1911,2249
1908,2250
1889,2251
1878,2252
1851,2253
1882,2254
1881,2255
1892,2256
1900,2257
1929,2258
1922,2259
1928,2260
1967,2261
1963,2262
1968,2263
1983,2264
1943,2265
1968,2266
1926,2267
1937,2268
1920,2269
1862,2270
1893,2271
1894,2272
1882,2273
1895,2274
1908,2275
1863,2276
1888,2277
1907,2278
1948,2279
1910,2280
1967,2281
1918,2282
1982,2283
1976,2284
1937,2285
1973,2286
1931,2287
1923,2288
1951,2289
1889,2290
1912,2291
1896,2292
1888,2293
1888,2294
1906,2295
1909,2296
1896,2297
1940,2298
1936,2299
1910,2300
1980,2301
1966,2302
1952,2303
1976,2304
1959,2305
1967,2306
1928,2307
1899,2308
1923,2309
1891,2310
1881,2311
1884,2312
1922,2313
1871,2314
1911,2315
1904,2316
1917,2317
1954,2318
1946,2319
1927,2320
1966,2321
1968,2322
1953,2323
2014,2324
1982,2325
1953,2326
1957,2327
1895,2328
1868,2329
1875,2330
1886,2331
1896,2332
1874,2333
1870,2334
1915,2335
1900,2336
1920,2337
1879,2338
1905,2339
1930,2340
1931,2341
1938,2342
1961,2343
1982,2344
1976,2345
1925,2346
1963,2347
1932,2348
1910,2349
1891,2350
1890,2351
1846,2352
1878,2353
1898,2354
1902,2355
1885,2356
1910,2357
1944,2358
1929,2359
1944,2360
1966,2361
1973,2362
1967,2363
1962,2364
1961,2365
1989,2366
1953,2367
1925,2368
1912,2369
1900,2370
1895,2371
1897,2372
1898,2373
1866,2374
1888,2375
1903,2376
1911,2377
1938,2378
1942,2379
1933,2380
1972,2381
1955,2382
1971,2383
1948,2384
1920,2385
1935,2386
1939,2387
1923,2388
1911,2389
1919,2390
1922,2391
1889,2392
1885,2393
1903,2394
1877,2395
1927,2396
1911,2397
1891,2398
1931,2399
1934,2400
1964,2401
1961,2402
1978,2403
1979,2404
1920,2405
1921,2406
1934,2407
1932,2408
1893,2409
1889,2410
1882,2411
1888,2412
1891,2413
1872,2414
1875,2415
1907,2416
1919,2417
1921,2418
1959,2419
1949,2420
1939,2421
1958,2422
1951,2423
1982,2424
1973,2425
1964,2426
1964,2427
1930,2428
1932,2429
1936,2430
1899,2431
1867,2432
1896,2433
1882,2434
1934,2435
1902,2436
1922,2437
1935,2438
1976,2439
1948,2440
1947,2441
1981,2442
1992,2443
1993,2444
1972,2445
1949,2446
1936,2447
1930,2448
1929,2449
1873,2450
1912,2451
1903,2452
1872,2453
1896,2454
1903,2455
1873,2456
1901,2457
1924,2458
1933,2459
1962,2460
1981,2461
1995,2462
1992,2463
1990,2464
1967,2465
1935,2466
1948,2467
1905,2468
1911,2469
1922,2470
1906,2471
1875,2472
1903,2473
1900,2474
1896,2475
1873,2476
1906,2477
1900,2478
1905,2479
1955,2480
1963,2481
1968,2482
1980,2483
1987,2484
1959,2485
1948,2486
1971,2487
1903,2488
1919,2489
1884,2490
1895,2491
1879,2492
1891,2493
1906,2494
1909,2495
1870,2496
1904,2497
1950,2498
1977,2499
1959,2500
1931,2501
1927,2502
1953,2503
1950,2504
1935,2505
1959,2506
1971,2507
1924,2508
1932,2509
1875,2510
1909,2511
1865,2512
1891,2513
1875,2514
1873,2515
1919,2516
1922,2517
1941,2518
1943,2519
1946,2520
1960,2521
1944,2522
1996,2523
1947,2524
1929,2525
1980,2526
1956,2527
1920,2528
1899,2529
1920,2530
1908,2531
1893,2532
1916,2533
1896,2534
1913,2535
1906,2536
1921,2537
1911,2538
1932,2539
1931,2540
1972,2541
1957,2542
1960,2543
1984,2544
1968,2545
1933,2546
1938,2547
1920,2548
1899,2549
1879,2550
1905,2551
1900,2552
1918,2553
1908,2554
1895,2555
1875,2556
1913,2557
1951,2558
1946,2559
1951,2560
1948,2561
1988,2562
1969,2563
1966,2564
1980,2565
1978,2566
1956,2567
1933,2568
1922,2569
1921,2570
1888,2571
1854,2572
1879,2573
1903,2574
1892,2575
1922,2576
1935,2577
1956,2578
1961,2579
1927,2580
1965,2581
1961,2582
1944,2583
1983,2584
1962,2585
1943,2586
1932,2587
1952,2588
1893,2589
1900,2590
1911,2591
1899,2592
1872,2593
1884,2594
1896,2595
1887,2596
1903,2597
1952,2598
1944,2599
1967,2600
1976,2601
1960,2602
1986,2603
1979,2604
1951,2605
1927,2606
1935,2607
1927,2608
1894,2609
1907,2610
1897,2611
1892,2612
1876,2613
1877,2614
1873,2615
1925,2616
1910,2617
1935,2618
1963,2619
1960,2620
1964,2621
1989,2622
1969,2623
2007,2624
1981,2625
1969,2626
1931,2627
1935,2628
1918,2629
1873,2630
1900,2631
1908,2632
1923,2633
1900,2634
1884,2635
1935,2636
1962,2637
1949,2638
1954,2639
1983,2640
1950,2641
1988,2642
2024,2643
1972,2644
1972,2645
1945,2646
1921,2647
1937,2648
1911,2649
1896,2650
1882,2651
1912,2652
1891,2653
1938,2654
1920,2655
1947,2656
1948,2657
1914,2658
1940,2659
1928,2660
1956,2661
1954,2662
1981,2663
1951,2664
1954,2665
1987,2666
1950,2667
1939,2668
1927,2669
1933,2670
1903,2671
1887,2672
1929,2673
1886,2674
1873,2675
1930,2676
1913,2677
1941,2678
1945,2679
1977,2680
1984,2681
1952,2682
1973,2683
1971,2684
1965,2685
1961,2686
1956,2687
1945,2688
1924,2689
1949,2690
1910,2691
1880,2692
1895,2693
1912,2694
1900,2695
1886,2696
1934,2697
1957,2698
1986,2699
1947,2700
1997,2701
1972,2702
1992,2703
1973,2704
1953,2705
1937,2706
1942,2707
1920,2708
1877,2709
1898,2710
1876,2711
1882,2712
1907,2713
1899,2714
1931,2715
1939,2716
1919,2717
1918,2718
1926,2719
1939,2720
1934,2721
1984,2722
1958,2723
1989,2724
1974,2725
1974,2726
1978,2727
1921,2728
1893,2729
1893,2730
1916,2731
1906,2732
1908,2733
1904,2734
1917,2735
1921,2736
1935,2737
1944,2738
1971,2739
1947,2740
1992,2741
1998,2742
2012,2743
1968,2744
1988,2745
1992,2746
1931,2747
1935,2748
1943,2749
1893,2750
1863,2751
1886,2752
1898,2753
1910,2754
1917,2755
1944,2756
1964,2757
1965,2758
1984,2759
1982,2760
1968,2761
1956,2762
1965,2763
1998,2764
2008,2765
1999,2766
1962,2767
1957,2768
1930,2769
1887,2770
1908,2771
1890,2772
1905,2773
1933,2774
1959,2775
1929,2776
1908,2777
1929,2778
1957,2779
1962,2780
1971,2781
1949,2782
1984,2783
1944,2784
1962,2785
1970,2786
1919,2787
1904,2788
1916,2789
1880,2790
1866,2791
1861,2792
1885,2793
1902,2794
1900,2795
1918,2796
1936,2797
1957,2798
1927,2799
1921,2800
1939,2801
1957,2802
1959,2803
1984,2804
1931,2805
1963,2806
1917,2807
1903,2808
1886,2809
1909,2810
1859,2811
1915,2812
1898,2813
1930,2814
1919,2815
1940,2816
1929,2817
1933,2818
1996,2819
1992,2820
2000,2821
1979,2822
1993,2823
1960,2824
1988,2825
1976,2826
1989,2827
1948,2828
1953,2829
1904,2830
1892,2831
1903,2832
1931,2833
1951,2834
1947,2835
1983,2836
1961,2837
1938,2838
1951,2839
1968,2840
1979,2841
1983,2842
1993,2843
1972,2844
1955,2845
1954,2846
1904,2847
1920,2848
1920,2849
1933,2850
1905,2851
1916,2852
1889,2853
1870,2854
1897,2855
1915,2856
1911,2857
1948,2858
1952,2859
1947,2860
1975,2861
1933,2862
1956,2863
1967,2864
1937,2865
1956,2866
1932,2867
1924,2868
1931,2869
1917,2870
1924,2871
1940,2872
1923,2873
1935,2874
1965,2875
1978,2876
1970,2877
1974,2878
1999,2879
1982,2880
1972,2881
2010,2882
1999,2883
1963,2884
1981,2885
1984,2886
1970,2887
1969,2888
1956,2889
1952,2890
1960,2891
1951,2892
1900,2893
1931,2894
1931,2895
1923,2896
1937,2897
1928,2898
1968,2899
1952,2900
1956,2901
1981,2902
2003,2903
1984,2904
1969,2905
1959,2906
1888,2907
1907,2908
1919,2909
1882,2910
1935,2911
1907,2912
1871,2913
1891,2914
1900,2915
1892,2916
1899,2917
1904,2918
1921,2919
1931,2920
1953,2921
1969,2922
1945,2923
1978,2924
1966,2925
1997,2926
1982,2927
1967,2928
1941,2929
1951,2930
1912,2931
1914,2932
1904,2933
1931,2934
1943,2935
1921,2936
1966,2937
1964,2938
1952,2939
1982,2940
1951,2941
1943,2942
1984,2943
1970,2944
1962,2945
1929,2946
1907,2947
1900,2948
1878,2949
1879,2950
1928,2951
1907,2952
1893,2953
1933,2954
1937,2955
1912,2956
1985,2957
1966,2958
1949,2959
1998,2960
1975,2961
2006,2962
2008,2963
1956,2964
1980,2965
1967,2966
1933,2967
1943,2968
1927,2969
1889,2970
1891,2971
1876,2972
1932,2973
1961,2974
1965,2975
2005,2976
2005,2977
1988,2978
1985,2979
1961,2980
1964,2981
1997,2982
1981,2983
1971,2984
1975,2985
1951,2986
1955,2987
1927,2988
1899,2989
1944,2990
1973,2991
2000,2992
1973,2993
1960,2994
1913,2995
1954,2996
1944,2997
1993,2998
1976,2999
2011,3000
2023,3001
2005,3002
2011,3003
2034,3004
2025,3005
1980,3006
1962,3007
1952,3008
1909,3009
1921,3010
1946,3011
1930,3012
1935,3013
1911,3014
1978,3015
1964,3016
1954,3017
1972,3018
1959,3019
1986,3020
1951,3021
2042,3022
2030,3023
2065,3024
2080,3025
2051,3026
1999,3027
2015,3028
2010,3029
1935,3030
1944,3031
1915,3032
1879,3033
1927,3034
1902,3035
1887,3036
1933,3037
1970,3038
1969,3039
2012,3040
2011,3041
2018,3042
1994,3043
1958,3044
1988,3045
1993,3046
1973,3047
1951,3048
1984,3049
1960,3050
1909,3051
1926,3052
1915,3053
1938,3054
1964,3055
1959,3056
1996,3057
1995,3058
1986,3059
1979,3060
2052,3061
2025,3062
2027,3063
2102,3064
2038,3065
2027,3066
1999,3067
2041,3068
2028,3069
2052,3070
2069,3071
2048,3072
2026,3073
2027,3074
2016,3075
2022,3076
2032,3077
2063,3078
2032,3079
2032,3080
1987,3081
2027,3082
2004,3083
1971,3084
1984,3085
1990,3086
1967,3087
1994,3088
2029,3089
1997,3090
2003,3091
1999,3092
1952,3093
1952,3094
1998,3095
2041,3096
2021,3097
2039,3098
2068,3099
2056,3100
2058,3101
2034,3102
2057,3103
2006,3104
1976,3105
1986,3106
1980,3107
1999,3108
1983,3109
1975,3110
1970,3111
1964,3112
1935,3113
1960,3114
1886,3115
1939,3116
1925,3117
1957,3118
1993,3119
2031,3120
2103,3121
2065,3122
2080,3123
2048,3124
2045,3125
1999,3126
2024,3127
1963,3128
1935,3129
1941,3130
1960,3131
1953,3132
1919,3133
1935,3134
1937,3135
1991,3136
2030,3137
2040,3138
2029,3139
2038,3140
2042,3141
2078,3142
2045,3143
2009,3144
2018,3145
1976,3146
1954,3147
1968,3148
1946,3149
1987,3150
2025,3151
2027,3152
2017,3153
2039,3154
2033,3155
2049,3156
2024,3157
2016,3158
1977,3159
1977,3160
1939,3161
2030,3162
1993,3163
1999,3164
2027,3165
1952,3166
1990,3167
1951,3168
1935,3169
1900,3170
1907,3171
1963,3172
1943,3173
2004,3174
1968,3175
1983,3176
2103,3177
2142,3178
2133,3179
2131,3180
2089,3181
2090,3182
2018,3183
2027,3184
1994,3185
1962,3186
1920,3187
1892,3188
1867,3189
1884,3190
1903,3191
1943,3192
1957,3193
1962,3194
1925,3195
1971,3196
1928,3197
1975,3198
1982,3199
2015,3200
2015,3201
2011,3202
2029,3203
2013,3204
2009,3205
2002,3206
1960,3207
1993,3208
1906,3209
1918,3210
1933,3211
1939,3212
1976,3213
1992,3214
1970,3215
2013,3216
1995,3217
2019,3218
2019,3219
2005,3220
2003,3221
2033,3222
2039,3223
2024,3224
2025,3225
1987,3226
2002,3227
1967,3228
1945,3229
1936,3230
1926,3231
1929,3232
1995,3233
1952,3234
2016,3235
2052,3236
2068,3237
2115,3238
2103,3239
2080,3240
2095,3241
2067,3242
2038,3243
1998,3244
2029,3245
2032,3246
2002,3247
1966,3248
1950,3249
1899,3250
1894,3251
1904,3252
1944,3253
1933,3254
1920,3255
1968,3256
1983,3257
1987,3258
2048,3259
2160,3260
2223,3261
2241,3262
2216,3263
2148,3264
2049,3265
1976,3266
1930,3267
1889,3268
1821,3269
1803,3270
1766,3271
1784,3272
1776,3273
1831,3274
1825,3275
1865,3276
1926,3277
1974,3278
2014,3279
2045,3280
2060,3281
2092,3282
2091,3283
2052,3284
2008,3285
1981,3286
1915,3287
1932,3288
1883,3289
1888,3290
1888,3291
1876,3292
1908,3293
1858,3294
1893,3295
1959,3296
1942,3297
1940,3298
1971,3299
1962,3300
1996,3301
1991,3302
1997,3303
2005,3304
1986,3305
1987,3306
1982,3307
1973,3308
1970,3309
1960,3310
1961,3311
1932,3312
1928,3313
1944,3314
1928,3315
1979,3316
1994,3317
1982,3318
1996,3319
2020,3320
1966,3321
2044,3322
2064,3323
2056,3324
2039,3325
1971,3326
1955,3327
1974,3328
1934,3329
1979,3330
1955,3331
1994,3332
1957,3333
1922,3334
1903,3335
1926,3336
1956,3337
1953,3338
1949,3339
1961,3340
1978,3341
1982,3342
1982,3343
1960,3344
1941,3345
1946,3346
1957,3347
1961,3348
1999,3349
1986,3350
2035,3351
2037,3352
2023,3353
2015,3354
1981,3355
1969,3356
1988,3357
1937,3358
1992,3359
1978,3360
1955,3361
1889,3362
1926,3363
1934,3364
1935,3365
1925,3366
1925,3367
1979,3368
2002,3369
1975,3370
1965,3371
1968,3372
1974,3373
1915,3374
1888,3375
1896,3376
1895,3377
1912,3378
1920,3379
1964,3380
2000,3381
1971,3382
1957,3383
1934,3384
1963,3385
1940,3386
1912,3387
1937,3388
1891,3389
1884,3390
1912,3391
1903,3392
1904,3393
1906,3394
1932,3395
1968,3396
2003,3397
2002,3398
1980,3399
2002,3400
1991,3401
1995,3402
2011,3403
1972,3404
1979,3405
1960,3406
1923,3407
1920,3408
1962,3409
2047,3410
2059,3411
2060,3412
1979,3413
1923,3414
1902,3415
1885,3416
1912,3417
1901,3418
1932,3419
1959,3420
2019,3421
2008,3422
2008,3423
2011,3424
1961,3425
1969,3426
1884,3427
1858,3428
1855,3429
1843,3430
1854,3431
1843,3432
1824,3433
1880,3434
1874,3435
1891,3436
1916,3437
1896,3438
1944,3439
1889,3440
1928,3441
1937,3442
1925,3443
1933,3444
1914,3445
1906,3446
1867,3447
1846,3448
1822,3449
1822,3450
1822,3451
1878,3452
1889,3453
1902,3454
1886,3455
1923,3456
1912,3457
1898,3458
1945,3459
1942,3460
1967,3461
1977,3462
1978,3463
1971,3464
1996,3465
1939,3466
1994,3467
1997,3468
1972,3469
1963,3470
1986,3471
1958,3472
1950,3473
1962,3474
1966,3475
1978,3476
2015,3477
2013,3478
1964,3479
1948,3480
1928,3481
2036,3482
2070,3483
2108,3484
2143,3485
2090,3486
2041,3487
1939,3488
1864,3489
1836,3490
1888,3491
1945,3492
1990,3493
2041,3494
1974,3495
1889,3496
1888,3497
1934,3498
1916,3499
1930,3500
1881,3501
1850,3502
1820,3503
1865,3504
1835,3505
1885,3506
1906,3507
1905,3508
1875,3509
1880,3510
1816,3511
1811,3512
1774,3513
1821,3514
1819,3515
1851,3516
1840,3517
1881,3518
1873,3519
1855,3520
1891,3521
1933,3522
1956,3523
1925,3524
1924,3525
1921,3526
1943,3527
1907,3528
1927,3529
1899,3530
1908,3531
1924,3532
1940,3533
1997,3534
2031,3535
2090,3536
2067,3537
2055,3538
1999,3539
2015,3540
2044,3541
2027,3542
2018,3543
2011,3544
2029,3545
2045,3546
2003,3547
1946,3548
1883,3549
1850,3550
1774,3551
1790,3552
1785,3553
1825,3554
1898,3555
1986,3556
2051,3557
2073,3558
2017,3559
1962,3560
1900,3561
1908,3562
1910,3563
1897,3564
1982,3565
2096,3566
2111,3567
2117,3568
2049,3569
1903,3570
1883,3571
1835,3572
1809,3573
1783,3574
1752,3575
1743,3576
1723,3577
1679,3578
1766,3579
1860,3580
1873,3581
1860,3582
1910,3583
1891,3584
1896,3585
1865,3586
1913,3587
1887,3588
1933,3589
1960,3590
2030,3591
2132,3592
2197,3593
2142,3594
2064,3595
1969,3596
1904,3597
1876,3598
1842,3599
1871,3600
1842,3601
1793,3602
1805,3603
1824,3604
1823,3605
1829,3606
1807,3607
1856,3608
1860,3609
1845,3610
1904,3611
1915,3612
2048,3613
2096,3614
2095,3615
2108,3616
2102,3617
2034,3618
1973,3619
2016,3620
2007,3621
2012,3622
1927,3623
1880,3624
1911,3625
1857,3626
1841,3627
1775,3628
1815,3629
1856,3630
2000,3631
2060,3632
2035,3633
2012,3634
1940,3635
1979,3636
1962,3637
2012,3638
2060,3639
1939,3640
1863,3641
1764,3642
1732,3643
1787,3644
1797,3645
1789,3646
1768,3647
1796,3648
1802,3649
1823,3650
1856,3651
1855,3652
1878,3653
1884,3654
1969,3655
2000,3656
2031,3657
2075,3658
2058,3659
2086,3660
2092,3661
2131,3662
2060,3663
2031,3664
2003,3665
1938,3666
1856,3667
1783,3668
1763,3669
1861,3670
1924,3671
1968,3672
1929,3673
1900,3674
1941,3675
1996,3676
2060,3677
2108,3678
2100,3679
1995,3680
1892,3681
1838,3682
1858,3683
1802,3684
1789,3685
1771,3686
1750,3687
1729,3688
1748,3689
1791,3690
1803,3691
1822,3692
1875,3693
1874,3694
1841,3695
1863,3696
1898,3697
1886,3698
1887,3699
1875,3700
1923,3701
1961,3702
1919,3703
1937,3704
1912,3705
1905,3706
1929,3707
1952,3708
1946,3709
1931,3710
1958,3711
2001,3712
2068,3713
2090,3714
2086,3715
2032,3716
1983,3717
1947,3718
1864,3719
1914,3720
1899,3721
1942,3722
2060,3723
2227,3724
2261,3725
2283,3726
2204,3727
2115,3728
1999,3729
1863,3730
1788,3731
1763,3732
1725,3733
1704,3734
1691,3735
1634,3736
1626,3737
1679,3738
1713,3739
1767,3740
1818,3741
1865,3742
1909,3743
1943,3744
1960,3745
2047,3746
2071,3747
2079,3748
2059,3749
2046,3750
2020,3751
1992,3752
1935,3753
1897,3754
1841,3755
1785,3756
1703,3757
1728,3758
1718,3759
1730,3760
1764,3761
1827,3762
1828,3763
1863,3764
1871,3765
1906,3766
1932,3767
1922,3768
1919,3769
1918,3770
1915,3771
1934,3772
1923,3773
1911,3774
1954,3775
1890,3776
1907,3777
1917,3778
1974,3779
1935,3780
1961,3781
2013,3782
2017,3783
1981,3784
1951,3785
1945,3786
1920,3787
1895,3788
1904,3789
1881,3790
1873,3791
1880,3792
1898,3793
1902,3794
1917,3795
1931,3796
1910,3797
1927,3798
1987,3799
1958,3800
1958,3801
2022,3802
2009,3803
1941,3804
1951,3805
1964,3806
1931,3807
1932,3808
1913,3809
1941,3810
1897,3811
1916,3812
1932,3813
1921,3814
1910,3815
1971,3816
1971,3817
1954,3818
1970,3819
2004,3820
2051,3821
1989,3822
2044,3823
2082,3824
2113,3825
2111,3826
2061,3827
2032,3828
2046,3829
2054,3830
2064,3831
2035,3832
1976,3833
1928,3834
1964,3835
1985,3836
2021,3837
2029,3838
2042,3839
2003,3840
1977,3841
1954,3842
1878,3843
1865,3844
1854,3845
1897,3846
1854,3847
1837,3848
1875,3849
1875,3850
1867,3851
1909,3852
1958,3853
1933,3854
1948,3855
2054,3856
2195,3857
2248,3858
2251,3859
2232,3860
2211,3861
2155,3862
2107,3863
2060,3864
2011,3865
2014,3866
1959,3867
1945,3868
1880,3869
1841,3870
1771,3871
1736,3872
1739,3873
1800,3874
1880,3875
1963,3876
2043,3877
2099,3878
2130,3879
2092,3880
2039,3881
2022,3882
1974,3883
1962,3884
1877,3885
1920,3886
1894,3887
1891,3888
1919,3889
1955,3890
2027,3891
2063,3892
2088,3893
2099,3894
2105,3895
2118,3896
2146,3897
2118,3898
2089,3899
2001,3900
1937,3901
1869,3902
1861,3903
1816,3904
1846,3905
1847,3906
1828,3907
1852,3908
1833,3909
1872,3910
1839,3911
1865,3912
1853,3913
1840,3914
1888,3915
1881,3916
1909,3917
1973,3918
1999,3919
2038,3920
2027,3921
2001,3922
2015,3923
1944,3924
1974,3925
1973,3926
1945,3927
1937,3928
1913,3929
1899,3930
1893,3931
1884,3932
1918,3933
1963,3934
2005,3935
2049,3936
2116,3937
2182,3938
2103,3939
2125,3940
2057,3941
2030,3942
2049,3943
1988,3944
1958,3945
1877,3946
1886,3947
1820,3948
1792,3949
1796,3950
1819,3951
1780,3952
1807,3953
1817,3954
1856,3955
1852,3956
1900,3957
1952,3958
1994,3959
2030,3960
2088,3961
2101,3962
2070,3963
2036,3964
2019,3965
1981,3966
1943,3967
1927,3968
1833,3969
1791,3970
1730,3971
1718,3972
1784,3973
1839,3974
1865,3975
1871,3976
1935,3977
1929,3978
1962,3979
2029,3980
2060,3981
2051,3982
2026,3983
1990,3984
2011,3985
1998,3986
2000,3987
1972,3988
1969,3989
1950,3990
1953,3991
1939,3992
1937,3993
1943,3994
1907,3995
1935,3996
1923,3997
1949,3998
1964,3999
1965,4000
2008,4001
2012,4002
2009,4003
1983,4004
1931,4005
1976,4006
1935,4007
1926,4008
1929,4009
1937,4010
1932,4011
1953,4012
1944,4013
1963,4014
2004,4015
1987,4016
1977,4017
1985,4018
1987,4019
1992,4020
1983,4021
1948,4022
2006,4023
1987,4024
1976,4025
1968,4026
1967,4027
1942,4028
1927,4029
1933,4030
1918,4031
1923,4032
1990,4033
1979,4034
1927,4035
1954,4036
1943,4037
1954,4038
1975,4039
2017,4040
2031,4041
2031,4042
2003,4043
2053,4044
2028,4045
1995,4046
1994,4047
1923,4048
1896,4049
1868,4050
1869,4051
1829,4052
1805,4053
1805,4054
1849,4055
1895,4056
2001,4057
2093,4058
2075,4059
2075,4060
2072,4061
2037,4062
1973,4063
1953,4064
1957,4065
1895,4066
1851,4067
1895,4068
1884,4069
1897,4070
1908,4071
1961,4072
1988,4073
2029,4074
2077,4075
2080,4076
2060,4077
2026,4078
2061,4079
2003,4080
1984,4081
1976,4082
1992,4083
1867,4084
1851,4085
1881,4086
1907,4087
1944,4088
1923,4089
1920,4090
1947,4091
1947,4092
1971,4093
2000,4094
1984,4095
2010,4096
2037,4097
1994,4098
1971,4099
1973,4100
1965,4101
1986,4102
1987,4103
1946,4104
1981,4105
2004,4106
1978,4107
1968,4108
1928,4109
1927,4110
1893,4111
1924,4112
1854,4113
1871,4114
1831,4115
1877,4116
1910,4117
1978,4118
2023,4119
2126,4120
2068,4121
2072,4122
2033,4123
1996,4124
1920,4125
1859,4126
1850,4127
1808,4128
1859,4129
1869,4130
1853,4131
1918,4132
1929,4133
1956,4134
1967,4135
1979,4136
1952,4137
1917,4138
1945,4139
1939,4140
1928,4141
1996,4142
2034,4143
2047,4144
2055,4145
2024,4146
1927,4147
1951,4148
1927,4149
1868,4150
1833,4151
1795,4152
1844,4153
1871,4154
1976,4155
2175,4156
2263,4157
2304,4158
2326,4159
2296,4160
2198,4161
2066,4162
1940,4163
1849,4164
1753,4165
1706,4166
1644,4167
1613,4168
1667,4169
1728,4170
1728,4171
1791,4172
1835,4173
1854,4174
1904,4175
2010,4176
2099,4177
2149,4178
2189,4179
2163,4180
2090,4181
1988,4182
1945,4183
1910,4184
1888,4185
1898,4186
1874,4187
1874,4188
1871,4189
1904,4190
1853,4191
1872,4192
1859,4193
1885,4194
1927,4195
1926,4196
1910,4197
1966,4198
2049,4199
2063,4200
2117,4201
2141,4202
2153,4203
2129,4204
2043,4205
1955,4206
1856,4207
1744,4208
1745,4209
1899,4210
1955,4211
2120,4212
2335,4213
2384,4214
2326,4215
2138,4216
2035,4217
1867,4218
1746,4219
1654,4220
1696,4221
1770,4222
1904,4223
2013,4224
2112,4225
2160,4226
2266,4227
2274,4228
2236,4229
2118,4230
2103,4231
2048,4232
1988,4233
1884,4234
1819,4235
1791,4236
1758,4237
1838,4238
1921,4239
2048,4240
2216,4241
2245,4242
2255,4243
2147,4244
2057,4245
1966,4246
1813,4247
1746,4248
1653,4249
1579,4250
1708,4251
1833,4252
1890,4253
1849,4254
1809,4255
1813,4256
1829,4257
1854,4258
2010,4259
2053,4260
2116,4261
2302,4262
2480,4263
2562,4264
2414,4265
2284,4266
2169,4267
1964,4268
1790,4269
1726,4270
1592,4271
1523,4272
1564,4273
1640,4274
1639,4275
1712,4276
1709,4277
1787,4278
1757,4279
1846,4280
1878,4281
1951,4282
1961,4283
1944,4284
1917,4285
1931,4286
1970,4287
2105,4288
2106,4289
2205,4290
2175,4291
2090,4292
2025,4293
1991,4294
1946,4295
1860,4296
1778,4297
1781,4298
1788,4299
1763,4300
1939,4301
2185,4302
2369,4303
2440,4304
2483,4305
2433,4306
2353,4307
2164,4308
1989,4309
1835,4310
1737,4311
1658,4312
1548,4313
1570,4314
1575,4315
1586,4316
1554,4317
1585,4318
1622,4319
1703,4320
1849,4321
1910,4322
2023,4323
2178,4324
2305,4325
2283,4326
2207,4327
2057,4328
1889,4329
1888,4330
1784,4331
1655,4332
1623,4333
1690,4334
1633,4335
1587,4336
1614,4337
1636,4338
1728,4339
1751,4340
1847,4341
1900,4342
1954,4343
1970,4344
2020,4345
1971,4346
2023,4347
2040,4348
2014,4349
1963,4350
1946,4351
2095,4352
2326,4353
2418,4354
2335,4355
2234,4356
2107,4357
2010,4358
1989,4359
1875,4360
1710,4361
1691,4362
1746,4363
1734,4364
1708,4365
1627,4366
1538,4367
1523,4368
1644,4369
1767,4370
1799,4371
1861,4372
2038,4373
2129,4374
2100,4375
2059,4376
2005,4377
1969,4378
1982,4379
2059,4380
2144,4381
2121,4382
2104,4383
2036,4384
1915,4385
1835,4386
1689,4387
1743,4388
1713,4389
1697,4390
1750,4391
1865,4392
1872,4393
1810,4394
1792,4395
1789,4396
1798,4397
1835,4398
1949,4399
2066,4400
2083,4401
2118,4402
2104,4403
2036,4404
1871,4405
1800,4406
1689,4407
1653,4408
1660,4409
1653,4410
1630,4411
1663,4412
1749,4413
1805,4414
1809,4415
1836,4416
1849,4417
1861,4418
1933,4419
1972,4420
2031,4421
2013,4422
2037,4423
2091,4424
2055,4425
2036,4426
1954,4427
1872,4428
1927,4429
1992,4430
2008,4431
1885,4432
1840,4433
1697,4434
1641,4435
1685,4436
1680,4437
1727,4438
1776,4439
1911,4440
1983,4441
1965,4442
1991,4443
2142,4444
2122,4445
1956,4446
1835,4447
1803,4448
1806,4449
1774,4450
1764,4451
1699,4452
1765,4453
1848,4454
1837,4455
1820,4456
1911,4457
1979,4458
2069,4459
2013,4460
2001,4461
1961,4462
1928,4463
1816,4464
1711,4465
1701,4466
1670,4467
1735,4468
1807,4469
1837,4470
1906,4471
1987,4472
2163,4473
2210,4474
2212,4475
2121,4476
2052,4477
2014,4478
1913,4479
1897,4480
1835,4481
1775,4482
1738,4483
1745,4484
1768,4485
1751,4486
1759,4487
1778,4488
1753,4489
1813,4490
1796,4491
1818,4492
1826,4493
1872,4494
1868,4495
1942,4496
2007,4497
2072,4498
2050,4499
2103,4500
2086,4501
2064,4502
2029,4503
1982,4504
1926,4505
1847,4506
1848,4507
1862,4508
1881,4509
1892,4510
1957,4511
1988,4512
2023,4513
1930,4514
1847,4515
1795,4516
1753,4517
1792,4518
1795,4519
1818,4520
1820,4521
1891,4522
1878,4523
1892,4524
1920,4525
1927,4526
1965,4527
2051,4528
1994,4529
2019,4530
2041,4531
1985,4532
2013,4533
2065,4534
2150,4535
2174,4536
2159,4537
2093,4538
2008,4539
1887,4540
1816,4541
1744,4542
1679,4543
1744,4544
1835,4545
1805,4546
1835,4547
1896,4548
1963,4549
2028,4550
2140,4551
2168,4552
2130,4553
2039,4554
2030,4555
2032,4556
1955,4557
1974,4558
1952,4559
1926,4560
1895,4561
1863,4562
1891,4563
1854,4564
1811,4565
1790,4566
1884,4567
1924,4568
1879,4569
1859,4570
1870,4571
1849,4572
1816,4573
1931,4574
1962,4575
1960,4576
1897,4577
1904,4578
1883,4579
1881,4580
1860,4581
1894,4582
1901,4583
1956,4584
1908,4585
1974,4586
1952,4587
1986,4588
1917,4589
1913,4590
1935,4591
1943,4592
1918,4593
1902,4594
1917,4595
1905,4596
1982,4597
2097,4598
2164,4599
2135,4600
2136,4601
2124,4602
2055,4603
2046,4604
2030,4605
2009,4606
2002,4607
2012,4608
2051,4609
2035,4610
2143,4611
2120,4612
1974,4613
2013,4614
2033,4615
1981,4616
1925,4617
2008,4618
2020,4619
1983,4620
2006,4621
1942,4622
1872,4623
1783,4624
1807,4625
1795,4626
1827,4627
1903,4628
1937,4629
1995,4630
2021,4631
1998,4632
2016,4633
1946,4634
1933,4635
1911,4636
1890,4637
1914,4638
1894,4639
1915,4640
1980,4641
2004,4642
2046,4643
2035,4644
2098,4645
2234,4646
2210,4647
2199,4648
2110,4649
2048,4650
2026,4651
2023,4652
2018,4653
1965,4654
1915,4655
1897,4656
1911,4657
1867,4658
1867,4659
1859,4660
1859,4661
1860,4662
1901,4663
1980,4664
1962,4665
1955,4666
1922,4667
1915,4668
1888,4669
1842,4670
1818,4671
1806,4672
1879,4673
1900,4674
1961,4675
2067,4676
2029,4677
2053,4678
2128,4679
2089,4680
2068,4681
2089,4682
2077,4683
2152,4684
2200,4685
2194,4686
2097,4687
1977,4688
1911,4689
1875,4690
1850,4691
1857,4692
1869,4693
1971,4694
1930,4695
1957,4696
1931,4697
1855,4698
1850,4699
1885,4700
1921,4701
2005,4702
2072,4703
2063,4704
2084,4705
2144,4706
2176,4707
2166,4708
2167,4709
2085,4710
1921,4711
1847,4712
1823,4713
1788,4714
1772,4715
1784,4716
1838,4717
1879,4718
1928,4719
2040,4720
2051,4721
1984,4722
1977,4723
1978,4724
1944,4725
1972,4726
1956,4727
1948,4728
2024,4729
2097,4730
2191,4731
2395,4732
2420,4733
2408,4734
2207,4735
1981,4736
1794,4737
1717,4738
1675,4739
1645,4740
1678,4741
1679,4742
1717,4743
1799,4744
1862,4745
1838,4746
1868,4747
1937,4748
2079,4749
2241,4750
2262,4751
2197,4752
2186,4753
2099,4754
2019,4755
1889,4756
1823,4757
1780,4758
1804,4759
1864,4760
1858,4761
1911,4762
1860,4763
1929,4764
1887,4765
1879,4766
1863,4767
1840,4768
1887,4769
1891,4770
1927,4771
2080,4772
2251,4773
2344,4774
2479,4775
2563,4776
2531,4777
2407,4778
2195,4779
1954,4780
1737,4781
1671,4782
1723,4783
1716,4784
1675,4785
1759,4786
1811,4787
1857,4788
1789,4789
1755,4790
1693,4791
1732,4792
1781,4793
1814,4794
1785,4795
1881,4796
2050,4797
2188,4798
2387,4799
2510,4800
2510,4801
2385,4802
2197,4803
2051,4804
1920,4805
1784,4806
1785,4807
1816,4808
1791,4809
1776,4810
1810,4811
1883,4812
1839,4813
1877,4814
1879,4815
1897,4816
2048,4817
2313,4818
2332,4819
2363,4820
2349,4821
2370,4822
2254,4823
2183,4824
2075,4825
1884,4826
1601,4827
1524,4828
1506,4829
1475,4830
1597,4831
1618,4832
1733,4833
1798,4834
1883,4835
1991,4836
2124,4837
2182,4838
2171,4839
2122,4840
2064,4841
1962,4842
1986,4843
2049,4844
2035,4845
2003,4846
1895,4847
1817,4848
1826,4849
1761,4850
1736,4851
1808,4852
1887,4853
1948,4854
1962,4855
1969,4856
1963,4857
1985,4858
2000,4859
2019,4860
2014,4861
2043,4862
1997,4863
2041,4864
1956,4865
1894,4866
1873,4867
1795,4868
1712,4869
1749,4870
1800,4871
1874,4872
2053,4873
2337,4874
2408,4875
2467,4876
2377,4877
2227,4878
2033,4879
1863,4880
1849,4881
1730,4882
1727,4883
1823,4884
1784,4885
1780,4886
1723,4887
1748,4888
1725,4889
1801,4890
1972,4891
2048,4892
2092,4893
2048,4894
2124,4895
2117,4896
2095,4897
2072,4898
2023,4899
1942,4900
2060,4901
2124,4902
1964,4903
1918,4904
1960,4905
2037,4906
2052,4907
1968,4908
2070,4909
2172,4910
2109,4911
2156,4912
2121,4913
1975,4914
1852,4915
1850,4916
1890,4917
1859,4918
1851,4919
1801,4920
1814,4921
1786,4922
1752,4923
1742,4924
1725,4925
1748,4926
1699,4927
1786,4928
1799,4929
1858,4930
1873,4931
1922,4932
1852,4933
1816,4934
1859,4935
1912,4936
1970,4937
1936,4938
2015,4939
1995,4940
1985,4941
1879,4942
1896,4943
1851,4944
1801,4945
1824,4946
1803,4947
1792,4948
1792,4949
1915,4950
1953,4951
2023,4952
2100,4953
2143,4954
2229,4955
2132,4956
2060,4957
1953,4958
1898,4959
1883,4960
1858,4961
1953,4962
1920,4963
1909,4964
1903,4965
1896,4966
1881,4967
1877,4968
1946,4969
1919,4970
1955,4971
1935,4972
1964,4973
1920,4974
1905,4975
1931,4976
2097,4977
2187,4978
2191,4979
2109,4980
2109,4981
2058,4982
2063,4983
1933,4984
1852,4985
1845,4986
1748,4987
1801,4988
1816,4989
1800,4990
1781,4991
1834,4992
1911,4993
2012,4994
2063,4995
2048,4996
1968,4997
1936,4998
1957,4999
1982,5000
1900,5001
1851,5002
1884,5003
1906,5004
2019,5005
2029,5006
2062,5007
1996,5008
1927,5009
1823,5010
1793,5011
1728,5012
1675,5013
1683,5014
1723,5015
1810,5016
1892,5017
1882,5018
1920,5019
1970,5020
1993,5021
1996,5022
1961,5023
1977,5024
1945,5025
1935,5026
1850,5027
1867,5028
1889,5029
1956,5030
1955,5031
1960,5032
1928,5033
1881,5034
1863,5035
1836,5036
1831,5037
1853,5038
1916,5039
2002,5040
2086,5041
2055,5042
2067,5043
1968,5044
1977,5045
1884,5046
1878,5047
1821,5048
1799,5049
1896,5050
1990,5051
2045,5052
1970,5053
1913,5054
1807,5055
1882,5056
1892,5057
1930,5058
2024,5059
2116,5060
2135,5061
2135,5062
2160,5063
2062,5064
1969,5065
1893,5066
1871,5067
1835,5068
1781,5069
1693,5070
1774,5071
1801,5072
1871,5073
1916,5074
1964,5075
1903,5076
1920,5077
1920,5078
1914,5079
1866,5080
1896,5081
1878,5082
1906,5083
1919,5084
1912,5085
1917,5086
1889,5087
1835,5088
1826,5089
1822,5090
1800,5091
1848,5092
1848,5093
1866,5094
1896,5095
1925,5096
1970,5097
1983,5098
1984,5099
2006,5100
2034,5101
1969,5102
1975,5103
1899,5104
1925,5105
1970,5106
1968,5107
1968,5108
2004,5109
1938,5110
1913,5111
1857,5112
1830,5113
1944,5114
1956,5115
2058,5116
1989,5117
1998,5118
1984,5119
1922,5120
1827,5121
1845,5122
1808,5123
1780,5124
1800,5125
1805,5126
1846,5127
1924,5128
2031,5129
2147,5130
2183,5131
2165,5132
2114,5133
2001,5134
1938,5135
1903,5136
1848,5137
1799,5138
1841,5139
1834,5140
1791,5141
1831,5142
1887,5143
1967,5144
2051,5145
2056,5146
2035,5147
1967,5148
1936,5149
1834,5150
1808,5151
1792,5152
1902,5153
2030,5154
2077,5155
2044,5156
2075,5157
2038,5158
1995,5159
2041,5160
2010,5161
1976,5162
1883,5163
1909,5164
1946,5165
1887,5166
1866,5167
1823,5168
1816,5169
1776,5170
1803,5171
1839,5172
1843,5173
1826,5174
1914,5175
2037,5176
2085,5177
2043,5178
2048,5179
2025,5180
2003,5181
1944,5182
1922,5183
1892,5184
1905,5185
1924,5186
1933,5187
1889,5188
1863,5189
1902,5190
1904,5191
1859,5192
1937,5193
1930,5194
1952,5195
1951,5196
1949,5197
1956,5198
1984,5199
2022,5200
1995,5201
1984,5202
1944,5203
1883,5204
1823,5205
1757,5206
1731,5207
1896,5208
1974,5209
2019,5210
2133,5211
2113,5212
2084,5213
1975,5214
1969,5215
1893,5216
1873,5217
1878,5218
1961,5219
2040,5220
2048,5221
2018,5222
2000,5223
1930,5224
1789,5225
1778,5226
1768,5227
1749,5228
1814,5229
1808,5230
1801,5231
1840,5232
1867,5233
1969,5234
2061,5235
2131,5236
2101,5237
2103,5238
2080,5239
1973,5240
1845,5241
1849,5242
1823,5243
1749,5244
1824,5245
1893,5246
1959,5247
1932,5248
1918,5249
1929,5250
1895,5251
1919,5252
1939,5253
2020,5254
2079,5255
2050,5256
2067,5257
2087,5258
2064,5259
2080,5260
1995,5261
1905,5262
1854,5263
1881,5264
1875,5265
1876,5266
1937,5267
1959,5268
1891,5269
1869,5270
1824,5271
1781,5272
1790,5273
1818,5274
1889,5275
1872,5276
1906,5277
1960,5278
1984,5279
1984,5280
1983,5281
2033,5282
1996,5283
1974,5284
1934,5285
1885,5286
1829,5287
1860,5288
1872,5289
1905,5290
1994,5291
2018,5292
1983,5293
1995,5294
1980,5295
1940,5296
1911,5297
1900,5298
1935,5299
1966,5300
1965,5301
2000,5302
2064,5303
2053,5304
2066,5305
2018,5306
1994,5307
1928,5308
1847,5309
1806,5310
1790,5311
1803,5312
1785,5313
1880,5314
1904,5315
1950,5316
1955,5317
1955,5318
1960,5319
2036,5320
1979,5321
1985,5322
1999,5323
2007,5324
1967,5325
1965,5326
2020,5327
1991,5328
1948,5329
1941,5330
1948,5331
1938,5332
1912,5333
1942,5334
1936,5335
1916,5336
1891,5337
1913,5338
1963,5339
1971,5340
1957,5341
1947,5342
1919,5343
1893,5344
1848,5345
1824,5346
1846,5347
1823,5348
1833,5349
1852,5350
1863,5351
1964,5352
1972,5353
2040,5354
2019,5355
2038,5356
2042,5357
2036,5358
2086,5359
2036,5360
2011,5361
1996,5362
2030,5363
1990,5364
1975,5365
1947,5366
1928,5367
1897,5368
1885,5369
1849,5370
1873,5371
1825,5372
1830,5373
1864,5374
1836,5375
1872,5376
1843,5377
1847,5378
1905,5379
1909,5380
1947,5381
1947,5382
1995,5383
1977,5384
1970,5385
1914,5386
1910,5387
1883,5388
1906,5389
1867,5390
1902,5391
1935,5392
1954,5393
1972,5394
1943,5395
1944,5396
1971,5397
1917,5398
1940,5399
1952,5400
2002,5401
1991,5402
2009,5403
1959,5404
1927,5405
1931,5406
1904,5407
1952,5408
1925,5409
1920,5410
1939,5411
1907,5412
1898,5413
1922,5414
1974,5415
2011,5416
2005,5417
2059,5418
2094,5419
2036,5420
1971,5421
1959,5422
1934,5423
1857,5424
1863,5425
1870,5426
1827,5427
1862,5428
1921,5429
1976,5430
1935,5431
1942,5432
2038,5433
2113,5434
2086,5435
2012,5436
1931,5437
1903,5438
1870,5439
1887,5440
1886,5441
1844,5442
1841,5443
1890,5444
1914,5445
1901,5446
1992,5447
2166,5448
2213,5449
2176,5450
2068,5451
2019,5452
1936,5453
1911,5454
1931,5455
1926,5456
1952,5457
2080,5458
2236,5459
2392,5460
2386,5461
2258,5462
2072,5463
1965,5464
1826,5465
1735,5466
1695,5467
1640,5468
1639,5469
1672,5470
1729,5471
1819,5472
1879,5473
1925,5474
1889,5475
1880,5476
1930,5477
1899,5478
1881,5479
1888,5480
1976,5481
2107,5482
2161,5483
2187,5484
2142,5485
2156,5486
2119,5487
2076,5488
2033,5489
1906,5490
1832,5491
1768,5492
1731,5493
1768,5494
1802,5495
1874,5496
1929,5497
1937,5498
1991,5499
1948,5500
1924,5501
1907,5502
1862,5503
1848,5504
1909,5505
1903,5506
1946,5507
2008,5508
1972,5509
1999,5510
1960,5511
1931,5512
1887,5513
1849,5514
1902,5515
1903,5516
1962,5517
2001,5518
2147,5519
2236,5520
2172,5521
2037,5522
1942,5523
1901,5524
1900,5525
1901,5526
1811,5527
1736,5528
1743,5529
1760,5530
1747,5531
1783,5532
1840,5533
1868,5534
1872,5535
2031,5536
2173,5537
2223,5538
2233,5539
2239,5540
2201,5541
2135,5542
2110,5543
2126,5544
2087,5545
2037,5546
2045,5547
2040,5548
2017,5549
2000,5550
1980,5551
1875,5552
1834,5553
1816,5554
1759,5555
1727,5556
1802,5557
1809,5558
1847,5559
1852,5560
1855,5561
1903,5562
1889,5563
1918,5564
1912,5565
1904,5566
1950,5567
1921,5568
1949,5569
2004,5570
2042,5571
2044,5572
1972,5573
1912,5574
1970,5575
1979,5576
1968,5577
1989,5578
2046,5579
1951,5580
1901,5581
1914,5582
1945,5583
1902,5584
1928,5585
1950,5586
1952,5587
1972,5588
2003,5589
2061,5590
2136,5591
2134,5592
2061,5593
1997,5594
1931,5595
1843,5596
1832,5597
1873,5598
1859,5599
1906,5600
1896,5601
1908,5602
1975,5603
1983,5604
1960,5605
1924,5606
1954,5607
1957,5608
1980,5609
1948,5610
1959,5611
1977,5612
1946,5613
1947,5614
2048,5615
2020,5616
2034,5617
1987,5618
2043,5619
2028,5620
1944,5621
1946,5622
1882,5623
1830,5624
1830,5625
1826,5626
1783,5627
1852,5628
1894,5629
2023,5630
2135,5631
2149,5632
2148,5633
2153,5634
2078,5635
1967,5636
1892,5637
1792,5638
1820,5639
1883,5640
1987,5641
2016,5642
1978,5643
1972,5644
1962,5645
2021,5646
1940,5647
1906,5648
1898,5649
1948,5650
1901,5651
1927,5652
1933,5653
1913,5654
1957,5655
2008,5656
2016,5657
1953,5658
2040,5659
2019,5660
2006,5661
1929,5662
1876,5663
1799,5664
1776,5665
1766,5666
1750,5667
1778,5668
1745,5669
1791,5670
1889,5671
2010,5672
2096,5673
2118,5674
2068,5675
2055,5676
2038,5677
2048,5678
2043,5679
1987,5680
1963,5681
1928,5682
1868,5683
1907,5684
1903,5685
1919,5686
2022,5687
2136,5688
2173,5689
2187,5690
2172,5691
2154,5692
2168,5693
2067,5694
1923,5695
1818,5696
1768,5697
1779,5698
1847,5699
1926,5700
1847,5701
1838,5702
1831,5703
1887,5704
1899,5705
1907,5706
1953,5707
1944,5708
1865,5709
1857,5710
1867,5711
1921,5712
1871,5713
1852,5714
1844,5715
1889,5716
1990,5717
2085,5718
2160,5719
2265,5720
2207,5721
2072,5722
1907,5723
1793,5724
1791,5725
1762,5726
1778,5727
1761,5728
1821,5729
1874,5730
1945,5731
1922,5732
1948,5733
1997,5734
2039,5735
2046,5736
2101,5737
2080,5738
2064,5739
1991,5740
1896,5741
1906,5742
1811,5743
1811,5744
1870,5745
1899,5746
1924,5747
1926,5748
1908,5749
1871,5750
1892,5751
1847,5752
1888,5753
1871,5754
1935,5755
1947,5756
1965,5757
2033,5758
2029,5759
2063,5760
2097,5761
2245,5762
2264,5763
2219,5764
2079,5765
1956,5766
1856,5767
1757,5768
1719,5769
1644,5770
1693,5771
1768,5772
1900,5773
1976,5774
2068,5775
2098,5776
2095,5777
2131,5778
2168,5779
2208,5780
2136,5781
2088,5782
2019,5783
1895,5784
1778,5785
1786,5786
1767,5787
1779,5788
1745,5789
1833,5790
1844,5791
1900,5792
1909,5793
1905,5794
1907,5795
1960,5796
2040,5797
2026,5798
2020,5799
2028,5800
2064,5801
2061,5802
1972,5803
1883,5804
1849,5805
1811,5806
1795,5807
1878,5808
1882,5809
1879,5810
1955,5811
1955,5812
1950,5813
1961,5814
1975,5815
1989,5816
2043,5817
2250,5818
2439,5819
2419,5820
2282,5821
2181,5822
2107,5823
1903,5824
1699,5825
1520,5826
1532,5827
1627,5828
1700,5829
1778,5830
1813,5831
1825,5832
1824,5833
1903,5834
1863,5835
1888,5836
2027,5837
2090,5838
2023,5839
2047,5840
2063,5841
2052,5842
1988,5843
1938,5844
1944,5845
1928,5846
1905,5847
1861,5848
1920,5849
1952,5850
1980,5851
2032,5852
2074,5853
2078,5854
2043,5855
2064,5856
2016,5857
1965,5858
1901,5859
1911,5860
1904,5861
1896,5862
1855,5863
1903,5864
1880,5865
1918,5866
1993,5867
2042,5868
2041,5869
1969,5870
1962,5871
1941,5872
1904,5873
1906,5874
1889,5875
1916,5876
2030,5877
2201,5878
2267,5879
2238,5880
2123,5881
2015,5882
1931,5883
1882,5884
1814,5885
1756,5886
1703,5887
1729,5888
1713,5889
1732,5890
1740,5891
1766,5892
1796,5893
1899,5894
1918,5895
1958,5896
2006,5897
2020,5898
2051,5899
2018,5900
2044,5901
2010,5902
1954,5903
1942,5904
1894,5905
1831,5906
1821,5907
1837,5908
1882,5909
1853,5910
1904,5911
1971,5912
2019,5913
1977,5914
1987,5915
2026,5916
2045,5917
2070,5918
2103,5919
2089,5920
2026,5921
1974,5922
1966,5923
1911,5924
1834,5925
1809,5926
1808,5927
1763,5928
1835,5929
1859,5930
1872,5931
1889,5932
1923,5933
1981,5934
1987,5935
2022,5936
2046,5937
2015,5938
2018,5939
2025,5940
2012,5941
1929,5942
1888,5943
1889,5944
1877,5945
1833,5946
1877,5947
1912,5948
1916,5949
1854,5950
1939,5951
1935,5952
1920,5953
1973,5954
2079,5955
2142,5956
2198,5957
2351,5958
2362,5959
2354,5960
2398,5961
2280,5962
2063,5963
1787,5964
1605,5965
1510,5966
1594,5967
1679,5968
1695,5969
1750,5970
1759,5971
1803,5972
1869,5973
1888,5974
1965,5975
2131,5976
2206,5977
2214,5978
2169,5979
2096,5980
1987,5981
1911,5982
1820,5983
1833,5984
1711,5985
1755,5986
1807,5987
1839,5988
1850,5989
1921,5990
1944,5991
1888,5992
1871,5993
1924,5994
1952,5995
1959,5996
1908,5997
2002,5998
2013,5999
1963,6000
2016,6001
2037,6002
1985,6003
1940,6004
1953,6005
1983,6006
1990,6007
1998,6008
2004,6009
1991,6010
1936,6011
1905,6012
1964,6013
1944,6014
1930,6015
1987,6016
2096,6017
2291,6018
2315,6019
2275,6020
2217,6021
2119,6022
2004,6023
1862,6024
1745,6025
1571,6026
1536,6027
1564,6028
1635,6029
1724,6030
1822,6031
1878,6032
1963,6033
2058,6034
2111,6035
2170,6036
2134,6037
2096,6038
2110,6039
2056,6040
2039,6041
1959,6042
1890,6043
1929,6044
1935,6045
2006,6046
2022,6047
2012,6048
1959,6049
2082,6050
2123,6051
2062,6052
1935,6053
1860,6054
1824,6055
1751,6056
1720,6057
1792,6058
1811,6059
1915,6060
1958,6061
1957,6062
1994,6063
1973,6064
1982,6065
1915,6066
1923,6067
1900,6068
1890,6069
1932,6070
1900,6071
1909,6072
1929,6073
1953,6074
1975,6075
1979,6076
1988,6077
1991,6078
2002,6079
1998,6080
1947,6081
1925,6082
1954,6083
1929,6084
1856,6085
1879,6086
1868,6087
1887,6088
1899,6089
1928,6090
1910,6091
1943,6092
1964,6093
1938,6094
1997,6095
1959,6096
1971,6097
2001,6098
2056,6099
2062,6100
2126,6101
2264,6102
2308,6103
2296,6104
2232,6105
2041,6106
1869,6107
1722,6108
1607,6109
1589,6110
1626,6111
1707,6112
1763,6113
1845,6114
1895,6115
1877,6116
1952,6117
2005,6118
1997,6119
1991,6120
1985,6121
2000,6122
2036,6123
2006,6124
2100,6125
2128,6126
2070,6127
2019,6128
1905,6129
1810,6130
1703,6131
1725,6132
1789,6133
1856,6134
1892,6135
1933,6136
2022,6137
1956,6138
1996,6139
2013,6140
1955,6141
1995,6142
2007,6143
1991,6144
1944,6145
1900,6146
1944,6147
1931,6148
1878,6149
1920,6150
1895,6151
1961,6152
1900,6153
1955,6154
1947,6155
1959,6156
1966,6157
2043,6158
2052,6159
2139,6160
2226,6161
2351,6162
2338,6163
2258,6164
2144,6165
1976,6166
1902,6167
1698,6168
1579,6169
1600,6170
1659,6171
1760,6172
1834,6173
1880,6174
1868,6175
1919,6176
1967,6177
1980,6178
1945,6179
1968,6180
1992,6181
1972,6182
1990,6183
1952,6184
1921,6185
1901,6186
1915,6187
1940,6188
1999,6189
2011,6190
1997,6191
1936,6192
1889,6193
1827,6194
1823,6195
1819,6196
1892,6197
2016,6198
2040,6199
2031,6200
2039,6201
1987,6202
1961,6203
1992,6204
1968,6205
1919,6206
1904,6207
1922,6208
1914,6209
1931,6210
1924,6211
1947,6212
1928,6213
1875,6214
1893,6215
1915,6216
1895,6217
2000,6218
2059,6219
2088,6220
2021,6221
2048,6222
1999,6223
1974,6224
1984,6225
1993,6226
1988,6227
1956,6228
1937,6229
1959,6230
1986,6231
1878,6232
1890,6233
1887,6234
1855,6235
1883,6236
1957,6237
1972,6238
1959,6239
1989,6240
1992,6241
1999,6242
1979,6243
1981,6244
1972,6245
1941,6246
1940,6247
1938,6248
1911,6249
1895,6250
1951,6251
2005,6252
2030,6253
2047,6254
2039,6255
2057,6256
2024,6257
2064,6258
2081,6259
2068,6260
2095,6261
2199,6262
2107,6263
2016,6264
1892,6265
1792,6266
1740,6267
1655,6268
1664,6269
1703,6270
1717,6271
1799,6272
1915,6273
1906,6274
1948,6275
1952,6276
1942,6277
1991,6278
1980,6279
1987,6280
2005,6281
2099,6282
2119,6283
2074,6284
2079,6285
2073,6286
1988,6287
1859,6288
1795,6289
1695,6290
1676,6291
1750,6292
1860,6293
1923,6294
1934,6295
1973,6296
2026,6297
2048,6298
2010,6299
2037,6300
1981,6301
1961,6302
1970,6303
1964,6304
1976,6305
1945,6306
1936,6307
1997,6308
2031,6309
1995,6310
1975,6311
1968,6312
1922,6313
1849,6314
1847,6315
1900,6316
1893,6317
1954,6318
1967,6319
2032,6320
2006,6321
1968,6322
1965,6323
1956,6324
1906,6325
1917,6326
1923,6327
1970,6328
1927,6329
1910,6330
1950,6331
1895,6332
1949,6333
2004,6334
2039,6335
2045,6336
2112,6337
2094,6338
2106,6339
2040,6340
2015,6341
2072,6342
2018,6343
1961,6344
1944,6345
1932,6346
1941,6347
1915,6348
1856,6349
1843,6350
1813,6351
1871,6352
1885,6353
1866,6354
1904,6355
1942,6356
1966,6357
1983,6358
1995,6359
1969,6360
1957,6361
1953,6362
1944,6363
1978,6364
1915,6365
1931,6366
1936,6367
1921,6368
1915,6369
1926,6370
1902,6371
1934,6372
1940,6373
1984,6374
1994,6375
1994,6376
1983,6377
2020,6378
1976,6379
1998,6380
1971,6381
1997,6382
1960,6383
1939,6384
1944,6385
1924,6386
1912,6387
1909,6388
1881,6389
1906,6390
1905,6391
1930,6392
1960,6393
1957,6394
1940,6395
1992,6396
1997,6397
1997,6398
2012,6399
2029,6400
1966,6401
1975,6402
1956,6403
1935,6404
1936,6405
1927,6406
1950,6407
1922,6408
1932,6409
1952,6410
1883,6411
1970,6412
1949,6413
1955,6414
1982,6415
2004,6416
2025,6417
2029,6418
2036,6419
2046,6420
2041,6421
1990,6422
1999,6423
1984,6424
2043,6425
2050,6426
2053,6427
1990,6428
1914,6429
1885,6430
1887,6431
1922,6432
1894,6433
1877,6434
1943,6435
1975,6436
1987,6437
1975,6438
2013,6439
2026,6440
1987,6441
1984,6442
1987,6443
1964,6444
1984,6445
2029,6446
2035,6447
2061,6448
2050,6449
2115,6450
2081,6451
2067,6452
1993,6453
1996,6454
1955,6455
1925,6456
1920,6457
1932,6458
1941,6459
1912,6460
1965,6461
1935,6462
1972,6463
1948,6464
1946,6465
1915,6466
1922,6467
1930,6468
1951,6469
1945,6470
1950,6471
2032,6472
2043,6473
2046,6474
2058,6475
2115,6476
2103,6477
2096,6478
2062,6479
2038,6480
1967,6481
1965,6482
1948,6483
1967,6484
1896,6485
1832,6486
1870,6487
2008,6488
2031,6489
2117,6490
2083,6491
2061,6492
2028,6493
2016,6494
1977,6495
1942,6496
1903,6497
1892,6498
1916,6499
1986,6500
1969,6501
1959,6502
1976,6503
1955,6504
1946,6505
1902,6506
1895,6507
1941,6508
1923,6509
1984,6510
1989,6511
2020,6512
2074,6513
2038,6514
2043,6515
2046,6516
2029,6517
2016,6518
2013,6519
1966,6520
2024,6521
2053,6522
2034,6523
1951,6524
1985,6525
1984,6526
1995,6527
2008,6528
2033,6529
2039,6530
2136,6531
2105,6532
2059,6533
2050,6534
2019,6535
2031,6536
1997,6537
2011,6538
2042,6539
2013,6540
1987,6541
1915,6542
1892,6543
1903,6544
1885,6545
1888,6546
1923,6547
1856,6548
1880,6549
1859,6550
1892,6551
1928,6552
2010,6553
2066,6554
2073,6555
2081,6556
2032,6557
2046,6558
1992,6559
1944,6560
1927,6561
1956,6562
1937,6563
1983,6564
1955,6565
1989,6566
1956,6567
1941,6568
1929,6569
1926,6570
1927,6571
1938,6572
1968,6573
2011,6574
2034,6575
2041,6576
2070,6577
2128,6578
2221,6579
2326,6580
2354,6581
2305,6582
2160,6583
2019,6584
1902,6585
1854,6586
1751,6587
1729,6588
1654,6589
1720,6590
1770,6591
1782,6592
1839,6593
1924,6594
1939,6595
1990,6596
2057,6597
2055,6598
2095,6599
2051,6600
2031,6601
2088,6602
2053,6603
2078,6604
2154,6605
2139,6606
2093,6607
2031,6608
1941,6609
1933,6610
1806,6611
1699,6612
1692,6613
1741,6614
1820,6615
1935,6616
2045,6617
2068,6618
2071,6619
2068,6620
1969,6621
1953,6622
1959,6623
1893,6624
1862,6625
1827,6626
1808,6627
1884,6628
1825,6629
1887,6630
1915,6631
1959,6632
2053,6633
2125,6634
2199,6635
2248,6636
2227,6637
2227,6638
2163,6639
2131,6640
1985,6641
1938,6642
1825,6643
1829,6644
1822,6645
1853,6646
1840,6647
1898,6648
1911,6649
1915,6650
1935,6651
1963,6652
1955,6653
1975,6654
2026,6655
2079,6656
2064,6657
2128,6658
2115,6659
2076,6660
2079,6661
2082,6662
2038,6663
1957,6664
1911,6665
1874,6666
1970,6667
2048,6668
2031,6669
2169,6670
2280,6671
2236,6672
2194,6673
2091,6674
1966,6675
1957,6676
1906,6677
1767,6678
1760,6679
1725,6680
1759,6681
1831,6682
1888,6683
1888,6684
1897,6685
1932,6686
1999,6687
2017,6688
1959,6689
2009,6690
1983,6691
1986,6692
1924,6693
1887,6694
1815,6695
1830,6696
1905,6697
1947,6698
2009,6699
1960,6700
1938,6701
1923,6702
1879,6703
1832,6704
1851,6705
1827,6706
1852,6707
1898,6708
1970,6709
1999,6710
1927,6711
1927,6712
1941,6713
2042,6714
2061,6715
2065,6716
2134,6717
2032,6718
2011,6719
1968,6720
1955,6721
1979,6722
1928,6723
1963,6724
1938,6725
1877,6726
1856,6727
1871,6728
1906,6729
1923,6730
1942,6731
1931,6732
1963,6733
1965,6734
1926,6735
1896,6736
1904,6737
1953,6738
1939,6739
1907,6740
1916,6741
1928,6742
1920,6743
1969,6744
2008,6745
1981,6746
1925,6747
1976,6748
1935,6749
1984,6750
2080,6751
2168,6752
2219,6753
2271,6754
2283,6755
2170,6756
2060,6757
1916,6758
1799,6759
1743,6760
1772,6761
1703,6762
1689,6763
1642,6764
1711,6765
1877,6766
1883,6767
1876,6768
1915,6769
1929,6770
1895,6771
1909,6772
1938,6773
1936,6774
1943,6775
1949,6776
2012,6777
2113,6778
2083,6779
2010,6780
2096,6781
2064,6782
2054,6783
2011,6784
2000,6785
1912,6786
1856,6787
1786,6788
1791,6789
1765,6790
1793,6791
2034,6792
2177,6793
2281,6794
2327,6795
2293,6796
2158,6797
2061,6798
1842,6799
1696,6800
1648,6801
1772,6802
1851,6803
1932,6804
1907,6805
1872,6806
1807,6807
1784,6808
1825,6809
1763,6810
1823,6811
1852,6812
1854,6813
1836,6814
1994,6815
2043,6816
2104,6817
2048,6818
1935,6819
1920,6820
1905,6821
1887,6822
1910,6823
1909,6824
1980,6825
2012,6826
2008,6827
2028,6828
1963,6829
1908,6830
1971,6831
2004,6832
2004,6833
1921,6834
1950,6835
1903,6836
1928,6837
1870,6838
1854,6839
1813,6840
1871,6841
1884,6842
1924,6843
1975,6844
1980,6845
2043,6846
2016,6847
2023,6848
1963,6849
1969,6850
1895,6851
1907,6852
1943,6853
1953,6854
1961,6855
1889,6856
1886,6857
1895,6858
1876,6859
1840,6860
1833,6861
1850,6862
1809,6863
1799,6864
1822,6865
1871,6866
1914,6867
1867,6868
1909,6869
1980,6870
1975,6871
2004,6872
2057,6873
2125,6874
2116,6875
2034,6876
2002,6877
1985,6878
1907,6879
1899,6880
1830,6881
1799,6882
1746,6883
1802,6884
1812,6885
1866,6886
1898,6887
1885,6888
1908,6889
1936,6890
1947,6891
1949,6892
2017,6893
1951,6894
1915,6895
1957,6896
1966,6897
1951,6898
1958,6899
1967,6900
1991,6901
1974,6902
1959,6903
1930,6904
1909,6905
1916,6906
1947,6907
1934,6908
1971,6909
2010,6910
1963,6911
1929,6912
1916,6913
1956,6914
1898,6915
1922,6916
1937,6917
1955,6918
1947,6919
1926,6920
1923,6921
1911,6922
1898,6923
1892,6924
1897,6925
1959,6926
1998,6927
2018,6928
2007,6929
2044,6930
1968,6931
1910,6932
1877,6933
1850,6934
1852,6935
1866,6936
1909,6937
1952,6938
1925,6939
1912,6940
1891,6941
1887,6942
1829,6943
1828,6944
1845,6945
1825,6946
1794,6947
1886,6948
1930,6949
1965,6950
1960,6951
1953,6952
1943,6953
1976,6954
1984,6955
2032,6956
2025,6957
2013,6958
1993,6959
2007,6960
2142,6961
2143,6962
2129,6963
2168,6964
2160,6965
2104,6966
1955,6967
1948,6968
1892,6969
1801,6970
1768,6971
1802,6972
1808,6973
1886,6974
1958,6975
2020,6976
2104,6977
2092,6978
2001,6979
1971,6980
1994,6981
1899,6982
1848,6983
1857,6984
1853,6985
1816,6986
1799,6987
1828,6988
1805,6989
1792,6990
1794,6991
1856,6992
1901,6993
1928,6994
1971,6995
2012,6996
2005,6997
1935,6998
1962,6999
1936,7000
1932,7001
1964,7002
1960,7003
2013,7004
2101,7005
2189,7006
2272,7007
2159,7008
2099,7009
1995,7010
1936,7011
1853,7012
1796,7013
1962,7014
1969,7015
1967,7016
1983,7017
1998,7018
1961,7019
1925,7020
1947,7021
1916,7022
1855,7023
1811,7024
1872,7025
1821,7026
1809,7027
1860,7028
1983,7029
2049,7030
2081,7031
2075,7032
2034,7033
1966,7034
1921,7035
1888,7036
1855,7037
1858,7038
2039,7039
2159,7040
2136,7041
2113,7042
1976,7043
1910,7044
1835,7045
1823,7046
1794,7047
1794,7048
1717,7049
1760,7050
1829,7051
1909,7052
1964,7053
1964,7054
1923,7055
2044,7056
2044,7057
2057,7058
2055,7059
1992,7060
2003,7061
1967,7062
1912,7063
1901,7064
1931,7065
1969,7066
1930,7067
1944,7068
1937,7069
1940,7070
1955,7071
1897,7072
1990,7073
2018,7074
2046,7075
2023,7076
2085,7077
2045,7078
2035,7079
1951,7080
1915,7081
1950,7082
1902,7083
1940,7084
1904,7085
1886,7086
1848,7087
1871,7088
1855,7089
1834,7090
1897,7091
1932,7092
1936,7093
1957,7094
2007,7095
2041,7096
1967,7097
1981,7098
1999,7099
2026,7100
2087,7101
2097,7102
2120,7103
2104,7104
1959,7105
1902,7106
1798,7107
1673,7108
1684,7109
1754,7110
1755,7111
1816,7112
1921,7113
1967,7114
1972,7115
2005,7116
1986,7117
2024,7118
1967,7119
2000,7120
1968,7121
1976,7122
1958,7123
2025,7124
1997,7125
2008,7126
2043,7127
2055,7128
2063,7129
1999,7130
1933,7131
1872,7132
1843,7133
1874,7134
1852,7135
1852,7136
1944,7137
1953,7138
1921,7139
1938,7140
1968,7141
1977,7142
1915,7143
1924,7144
1918,7145
1882,7146
1868,7147
1951,7148
2053,7149
2205,7150
2285,7151
2338,7152
2237,7153
2124,7154
2040,7155
1869,7156
1717,7157
1677,7158
1708,7159
1767,7160
1804,7161
1861,7162
1859,7163
1861,7164
1858,7165
1892,7166
1867,7167
1853,7168
1913,7169
1916,7170
1899,7171
1924,7172
1948,7173
1950,7174
1962,7175
1978,7176
2003,7177
1987,7178
2001,7179
2046,7180
2051,7181
2023,7182
2012,7183
1978,7184
1941,7185
1888,7186
1880,7187
1875,7188
1884,7189
1862,7190
1901,7191
1886,7192
1925,7193
1935,7194
1951,7195
1969,7196
1994,7197
1999,7198
2001,7199
1980,7200
1993,7201
1976,7202
1964,7203
1964,7204
1985,7205
1962,7206
1936,7207
1924,7208
1823,7209
1817,7210
1807,7211
1856,7212
1831,7213
1859,7214
1932,7215
1960,7216
2003,7217
2004,7218
2025,7219
1992,7220
1973,7221
2008,7222
1982,7223
1952,7224
1903,7225
1926,7226
1936,7227
1914,7228
1949,7229
1929,7230
1893,7231
1923,7232
1964,7233
1959,7234
1967,7235
2007,7236
2001,7237
2011,7238
1999,7239
2034,7240
1977,7241
1946,7242
1937,7243
1918,7244
1876,7245
1899,7246
1899,7247
1908,7248
1970,7249
1982,7250
1968,7251
1954,7252
1978,7253
1990,7254
1976,7255
2009,7256
1996,7257
1983,7258
1939,7259
1923,7260
1926,7261
1911,7262
1911,7263
1934,7264
1909,7265
1947,7266
1928,7267
1986,7268
1966,7269
1957,7270
1968,7271
1963,7272
1993,7273
2111,7274
2199,7275
2180,7276
2113,7277
2085,7278
2012,7279
1881,7280
1837,7281
1859,7282
1796,7283
1800,7284
1831,7285
1840,7286
1862,7287
1896,7288
1908,7289
1881,7290
1890,7291
1902,7292
1930,7293
1948,7294
1979,7295
2041,7296
1976,7297
2018,7298
2019,7299
2007,7300
2008,7301
1959,7302
1936,7303
1903,7304
1892,7305
1887,7306
1878,7307
1928,7308
1915,7309
1943,7310
1951,7311
1959,7312
1983,7313
2012,7314
2032,7315
2022,7316
2064,7317
2008,7318
1968,7319
1951,7320
1920,7321
1875,7322
1877,7323
1904,7324
1811,7325
1838,7326
1836,7327
1883,7328
1805,7329
1853,7330
1876,7331
1915,7332
1886,7333
1937,7334
2014,7335
1980,7336
2002,7337
2007,7338
1985,7339
1962,7340
1914,7341
1876,7342
1908,7343
1822,7344
1849,7345
1885,7346
1872,7347
1883,7348
1892,7349
1934,7350
1932,7351
2018,7352
2054,7353
2084,7354
2081,7355
2080,7356
2095,7357
2061,7358
2032,7359
1954,7360
1944,7361
1915,7362
1943,7363
1930,7364
1913,7365
1902,7366
1923,7367
1889,7368
1872,7369
1920,7370
1875,7371
1903,7372
1943,7373
1911,7374
1902,7375
1979,7376
1961,7377
1946,7378
1995,7379
2020,7380
2021,7381
2045,7382
2022,7383
1947,7384
1919,7385
1918,7386
1877,7387
1864,7388
1871,7389
1899,7390
1901,7391
1940,7392
1895,7393
1875,7394
1911,7395
1915,7396
1924,7397
1969,7398
1951,7399
1950,7400
1969,7401
1942,7402
1909,7403
1933,7404
1904,7405
1889,7406
1947,7407
1907,7408
1911,7409
1933,7410
1896,7411
1883,7412
1873,7413
1877,7414
1910,7415
1917,7416
1967,7417
1927,7418
1963,7419
2001,7420
1976,7421
1949,7422
1926,7423
1932,7424
1887,7425
1861,7426
1923,7427
1875,7428
1884,7429
1906,7430
1936,7431
1975,7432
1930,7433
1962,7434
1983,7435
1968,7436
1980,7437
1975,7438
1971,7439
1968,7440
1955,7441
1964,7442
1949,7443
1890,7444
1880,7445
1902,7446
1918,7447
1891,7448
1942,7449
1933,7450
1925,7451
1913,7452
1938,7453
1960,7454
1939,7455
1921,7456
1971,7457
2004,7458
2045,7459
1995,7460
2104,7461
2123,7462
2077,7463
2035,7464
1970,7465
1963,7466
1885,7467
1821,7468
1764,7469
1762,7470
1781,7471
1851,7472
1865,7473
1915,7474
1920,7475
1998,7476
1950,7477
1991,7478
1932,7479
1953,7480
1971,7481
1942,7482
1903,7483
1900,7484
1947,7485
1943,7486
1925,7487
1927,7488
1914,7489
1935,7490
1924,7491
1882,7492
1908,7493
1936,7494
1960,7495
1990,7496
1987,7497
2012,7498
2025,7499
2023,7500
2017,7501
2010,7502
1908,7503
1903,7504
1904,7505
1945,7506
1928,7507
1904,7508
1949,7509
1900,7510
1897,7511
1887,7512
1920,7513
1898,7514
1903,7515
1931,7516
1953,7517
1973,7518
1949,7519
1992,7520
1957,7521
1982,7522
1982,7523
1903,7524
1918,7525
1907,7526
1884,7527
1930,7528
1902,7529
1881,7530
1899,7531
1964,7532
2049,7533
2175,7534
2174,7535
2299,7536
2247,7537
2215,7538
2055,7539
1955,7540
1816,7541
1711,7542
1639,7543
1704,7544
1730,7545
1777,7546
1813,7547
1879,7548
1908,7549
1910,7550
1928,7551
1925,7552
1949,7553
1916,7554
1972,7555
1991,7556
1979,7557
1992,7558
1975,7559
1995,7560
2011,7561
1937,7562
1986,7563
1985,7564
1965,7565
1971,7566
1922,7567
1916,7568
1916,7569
1884,7570
1919,7571
1941,7572
1927,7573
1924,7574
1924,7575
1916,7576
1944,7577
1970,7578
1914,7579
1952,7580
1951,7581
1954,7582
1931,7583
1893,7584
1873,7585
1855,7586
1844,7587
1865,7588
1853,7589
1895,7590
1929,7591
1941,7592
1991,7593
1983,7594
1981,7595
2027,7596
1990,7597
2031,7598
1960,7599
1897,7600
1912,7601
1898,7602
1955,7603
2002,7604
1967,7605
1908,7606
1927,7607
1902,7608
1861,7609
1857,7610
1865,7611
1920,7612
1904,7613
1997,7614
1985,7615
1992,7616
1983,7617
2008,7618
2025,7619
1983,7620
2000,7621
1993,7622
1990,7623
2036,7624
2023,7625
1972,7626
1956,7627
1918,7628
1948,7629
1949,7630
1895,7631
1829,7632
1898,7633
1924,7634
2059,7635
2106,7636
2122,7637
2125,7638
2070,7639
1985,7640
1919,7641
1841,7642
1785,7643
1775,7644
1839,7645
1810,7646
1840,7647
1866,7648
1995,7649
2111,7650
2119,7651
2087,7652
2077,7653
1974,7654
1942,7655
1948,7656
1867,7657
1896,7658
1895,7659
1871,7660
1915,7661
1877,7662
1904,7663
1897,7664
1844,7665
1900,7666
1863,7667
1876,7668
1873,7669
1908,7670
1940,7671
1946,7672
1971,7673
2019,7674
2017,7675
2049,7676
2094,7677
2066,7678
2049,7679
2065,7680
2043,7681
1966,7682
1921,7683
1884,7684
1821,7685
1790,7686
1854,7687
1864,7688
1888,7689
1948,7690
1952,7691
1949,7692
1987,7693
1952,7694
1992,7695
1993,7696
1945,7697
2001,7698
1967,7699
1971,7700
1968,7701
1983,7702
2004,7703
1930,7704
1879,7705
1872,7706
1866,7707
1877,7708
1885,7709
1882,7710
1901,7711
1903,7712
1997,7713
2050,7714
2066,7715
2054,7716
2089,7717
2043,7718
2047,7719
2055,7720
1971,7721
1986,7722
1985,7723
1984,7724
1957,7725
1900,7726
1842,7727
1835,7728
1841,7729
1905,7730
1940,7731
1926,7732
1920,7733
1923,7734
2008,7735
2008,7736
1990,7737
1975,7738
1998,7739
1948,7740
1908,7741
1943,7742
1955,7743
1943,7744
1942,7745
1928,7746
1892,7747
1880,7748
1934,7749
1966,7750
2020,7751
2011,7752
1963,7753
1986,7754
1996,7755
2046,7756
2040,7757
1984,7758
1982,7759
1950,7760
1913,7761
1915,7762
1880,7763
1841,7764
1836,7765
1872,7766
1908,7767
1923,7768
1922,7769
1927,7770
1891,7771
1960,7772
2017,7773
1976,7774
2011,7775
1986,7776
2030,7777
2007,7778
1975,7779
1990,7780
1995,7781
1968,7782
1974,7783
1914,7784
1937,7785
1923,7786
1894,7787
1873,7788
1865,7789
1860,7790
1930,7791
1963,7792
1977,7793
1955,7794
1991,7795
2010,7796
2028,7797
2010,7798
1982,7799
1986,7800
2010,7801
2039,7802
2116,7803
2104,7804
2033,7805
1999,7806
1946,7807
1881,7808
1871,7809
1888,7810
1910,7811
1941,7812
1953,7813
1949,7814
1975,7815
1945,7816
1975,7817
2016,7818
2072,7819
2073,7820
2041,7821
2006,7822
1983,7823
1950,7824
1920,7825
1805,7826
1840,7827
1864,7828
1873,7829
1924,7830
1956,7831
1946,7832
1946,7833
1894,7834
1984,7835
2011,7836
1984,7837
2036,7838
2005,7839
2015,7840
1952,7841
1923,7842
1900,7843
1880,7844
1879,7845
1932,7846
1905,7847
1891,7848
1922,7849
1892,7850
1964,7851
1952,7852
1971,7853
1982,7854
1963,7855
2037,7856
2031,7857
2008,7858
2016,7859
2032,7860
2032,7861
2015,7862
2003,7863
1986,7864
1954,7865
1950,7866
1983,7867
1951,7868
1920,7869
1947,7870
1948,7871
1915,7872
1906,7873
1913,7874
1952,7875
2008,7876
2003,7877
2012,7878
2035,7879
2000,7880
1952,7881
1990,7882
2018,7883
1999,7884
1975,7885
1962,7886
1934,7887
1935,7888
1886,7889
1893,7890
1896,7891
1930,7892
1976,7893
2006,7894
1970,7895
1968,7896
1975,7897
1987,7898
1981,7899
1945,7900
1917,7901
1880,7902
1858,7903
1863,7904
1879,7905
1921,7906
1899,7907
1933,7908
1945,7909
1982,7910
1957,7911
1979,7912
2031,7913
2016,7914
2082,7915
2072,7916
2022,7917
1992,7918
1959,7919
1980,7920
1945,7921
1931,7922
1911,7923
1896,7924
1923,7925
1905,7926
2012,7927
2088,7928
2087,7929
2092,7930
2089,7931
2067,7932
2059,7933
2027,7934
1993,7935
1944,7936
1884,7937
1863,7938
1890,7939
1877,7940
1861,7941
1856,7942
1823,7943
1837,7944
1836,7945
1881,7946
1885,7947
1885,7948
1882,7949
1874,7950
1950,7951
1959,7952
1908,7953
1937,7954
1971,7955
2036,7956
2002,7957
2018,7958
1994,7959
2004,7960
2007,7961
2007,7962
1933,7963
1934,7964
1940,7965
1953,7966
1954,7967
1999,7968
2011,7969
1996,7970
2048,7971
2080,7972
2035,7973
2030,7974
1991,7975
1975,7976
2014,7977
2008,7978
1944,7979
1971,7980
1993,7981
2065,7982
2024,7983
1977,7984
1926,7985
1943,7986
2071,7987
2118,7988
2134,7989
2160,7990
2125,7991
2062,7992
1960,7993
1853,7994
1820,7995
1764,7996
1730,7997
1745,7998
1764,7999
1786,8000
1804,8001
1865,8002
1912,8003
1881,8004
1852,8005
1862,8006
1959,8007
2009,8008
1998,8009
2023,8010
1975,8011
2047,8012
2093,8013
2081,8014
2079,8015
2058,8016
2020,8017
2060,8018
1995,8019
1974,8020
1989,8021
1948,8022
1927,8023
1892,8024
1880,8025
1875,8026
1903,8027
1943,8028
2040,8029
2072,8030
2075,8031
2087,8032
2126,8033
2085,8034
2011,8035
1923,8036
1910,8037
1812,8038
1801,8039
1828,8040
1818,8041
1860,8042
1901,8043
1977,8044
1963,8045
1996,8046
2043,8047
2026,8048
1996,8049
1924,8050
1926,8051
1874,8052
1824,8053
1853,8054
1889,8055
1916,8056
1931,8057
2005,8058
2075,8059
2143,8060
2198,8061
2163,8062
2071,8063
1899,8064
1746,8065
1705,8066
1727,8067
1767,8068
1890,8069
1991,8070
2047,8071
2047,8072
2014,8073
1950,8074
1950,8075
1972,8076
2008,8077
2015,8078
2044,8079
2011,8080
2031,8081
2056,8082
2093,8083
2088,8084
2094,8085
2100,8086
2014,8087
1945,8088
1856,8089
1816,8090
1781,8091
1831,8092
1943,8093
2018,8094
2056,8095
2047,8096
2044,8097
1995,8098
1958,8099
1935,8100
1934,8101
1941,8102
1958,8103
2078,8104
2137,8105
2099,8106
2062,8107
2074,8108
2007,8109
1932,8110
1911,8111
1900,8112
1875,8113
1952,8114
1975,8115
1932,8116
1932,8117
1826,8118
1833,8119
1774,8120
1722,8121
1757,8122
1822,8123
1849,8124
1936,8125
1953,8126
1938,8127
1893,8128
1907,8129
1947,8130
1983,8131
2095,8132
2178,8133
2191,8134
2167,8135
2089,8136
1993,8137
1938,8138
1855,8139
1868,8140
1820,8141
1860,8142
1881,8143
1850,8144
1926,8145
1919,8146
1938,8147
1958,8148
1901,8149
1916,8150
1968,8151
2079,8152
2183,8153
2186,8154
2145,8155
2115,8156
2046,8157
2010,8158
1993,8159
1990,8160
1917,8161
1838,8162
1859,8163
1855,8164
1870,8165
1880,8166
1872,8167
1863,8168
1896,8169
1955,8170
2096,8171
2183,8172
2164,8173
2147,8174
2159,8175
2085,8176
1935,8177
1887,8178
1882,8179
1837,8180
1856,8181
1859,8182
1848,8183
1874,8184
1889,8185
1849,8186
1832,8187
1803,8188
1800,8189
1862,8190
1855,8191
1881,8192
1971,8193
2072,8194
2104,8195
2050,8196
2044,8197
1999,8198
1945,8199
1927,8200
1966,8201
1950,8202
1998,8203
2031,8204
2032,8205
1943,8206
1932,8207
1994,8208
1980,8209
1929,8210
1919,8211
1873,8212
1871,8213
1928,8214
2009,8215
2114,8216
2114,8217
2092,8218
2107,8219
2064,8220
2047,8221
2004,8222
2037,8223
2124,8224
2076,8225
2052,8226
2017,8227
1935,8228
1895,8229
1827,8230
1839,8231
1896,8232
1925,8233
1937,8234
2009,8235
1900,8236
1857,8237
1843,8238
1858,8239
1816,8240
1798,8241
1841,8242
1923,8243
2024,8244
2091,8245
2064,8246
2033,8247
2014,8248
2006,8249
2034,8250
2001,8251
2042,8252
2050,8253
2027,8254
2085,8255
2070,8256
2024,8257
1942,8258
1963,8259
1967,8260
1987,8261
1921,8262
1902,8263
1867,8264
1926,8265
1907,8266
1850,8267
1882,8268
1825,8269
1856,8270
1921,8271
1934,8272
1927,8273
1968,8274
2141,8275
2267,8276
2356,8277
2303,8278
2281,8279
2137,8280
2114,8281
2038,8282
1970,8283
1965,8284
2056,8285
1999,8286
1916,8287
1834,8288
1838,8289
1858,8290
1879,8291
1904,8292
2025,8293
2075,8294
2134,8295
2177,8296
2200,8297
2182,8298
2183,8299
2096,8300
2040,8301
2005,8302
1942,8303
1847,8304
1735,8305
1706,8306
1670,8307
1762,8308
1787,8309
1896,8310
1975,8311
1987,8312
1997,8313
1995,8314
2093,8315
2211,8316
2223,8317
2134,8318
2067,8319
2007,8320
1895,8321
1848,8322
1857,8323
1880,8324
1850,8325
1799,8326
1810,8327
1851,8328
1863,8329
1913,8330
1940,8331
1995,8332
2024,8333
2049,8334
2055,8335
2013,8336
1976,8337
1949,8338
1991,8339
2019,8340
1999,8341
1983,8342
2015,8343
2006,8344
1996,8345
1944,8346
2008,8347
2031,8348
2086,8349
2107,8350
2071,8351
2095,8352
2172,8353
2192,8354
2140,8355
2112,8356
2029,8357
2106,8358
2195,8359
2121,8360
2049,8361
2060,8362
2102,8363
2129,8364
2128,8365
2058,8366
1991,8367
1870,8368
1742,8369
1632,8370
1600,8371
1606,8372
1627,8373
1733,8374
1878,8375
1893,8376
1947,8377
2054,8378
2192,8379
2296,8380
2273,8381
2203,8382
2097,8383
1952,8384
1792,8385
1743,8386
1818,8387
1972,8388
2016,8389
2099,8390
2270,8391
2271,8392
2211,8393
2082,8394
1938,8395
1964,8396
1930,8397
1831,8398
1843,8399
1920,8400
2031,8401
2073,8402
2063,8403
2071,8404
2043,8405
2010,8406
1935,8407
1856,8408
1823,8409
1775,8410
1691,8411
1719,8412
1734,8413
1827,8414
1929,8415
2033,8416
2138,8417
2135,8418
2088,8419
2165,8420
2150,8421
2311,8422
2547,8423
2572,8424
2403,8425
2193,8426
1997,8427
1784,8428
1639,8429
1600,8430
1633,8431
1623,8432
1651,8433
1703,8434
1759,8435
1866,8436
2060,8437
2164,8438
2187,8439
2283,8440
2355,8441
2283,8442
2189,8443
2100,8444
1973,8445
1882,8446
1817,8447
1767,8448
1790,8449
1842,8450
1925,8451
1888,8452
2014,8453
2169,8454
2109,8455
2178,8456
2252,8457
2325,8458
2248,8459
2143,8460
2036,8461
1955,8462
1875,8463
1818,8464
1896,8465
1794,8466
1751,8467
1721,8468
1719,8469
1712,8470
1711,8471
1716,8472
1795,8473
1779,8474
1902,8475
1875,8476
1883,8477
1952,8478
2004,8479
1998,8480
2004,8481
1965,8482
1955,8483
2160,8484
2265,8485
2391,8486
2460,8487
2542,8488
2569,8489
2485,8490
2341,8491
2050,8492
1903,8493
1886,8494
1831,8495
1819,8496
1743,8497
1731,8498
1673,8499
1706,8500
1691,8501
1659,8502
1702,8503
1750,8504
1811,8505
1869,8506
1845,8507
1915,8508
1874,8509
1951,8510
2000,8511
2016,8512
2148,8513
2195,8514
2215,8515
2128,8516
2092,8517
1981,8518
1907,8519
1802,8520
1726,8521
1718,8522
1658,8523
1728,8524
1759,8525
1779,8526
1832,8527
1843,8528
1862,8529
1883,8530
1923,8531
1964,8532
1934,8533
1979,8534
1954,8535
1990,8536
2004,8537
2031,8538
2007,8539
2001,8540
2097,8541
2293,8542
2345,8543
2277,8544
2137,8545
1999,8546
1903,8547
1955,8548
1957,8549
2068,8550
2031,8551
1958,8552
1921,8553
1875,8554
1778,8555
1708,8556
1652,8557
1708,8558
1747,8559
1801,8560
1816,8561
1841,8562
1871,8563
1853,8564
1874,8565
1833,8566
1872,8567
1906,8568
1911,8569
1961,8570
1955,8571
1968,8572
2021,8573
2067,8574
2155,8575
2186,8576
2119,8577
2102,8578
2084,8579
1997,8580
1923,8581
1890,8582
1787,8583
1763,8584
1766,8585
1771,8586
1798,8587
1762,8588
1769,8589
1821,8590
1856,8591
1884,8592
1873,8593
1927,8594
1945,8595
1955,8596
1971,8597
1963,8598
1937,8599
1943,8600
1914,8601
1915,8602
1883,8603
1891,8604
1907,8605
1848,8606
1891,8607
1880,8608
1887,8609
1946,8610
1923,8611
1942,8612
1971,8613
1940,8614
1974,8615
1954,8616
1973,8617
1979,8618
1937,8619
1920,8620
1906,8621
1901,8622
1912,8623
1894,8624
1894,8625
1852,8626
1851,8627
1844,8628
1898,8629
1920,8630
1908,8631
1961,8632
1965,8633
1929,8634
1959,8635
1968,8636
1950,8637
1951,8638
1959,8639
1916,8640
1915,8641
1906,8642
1895,8643
1896,8644
1890,8645
1870,8646
1869,8647
1881,8648
1888,8649
1914,8650
1939,8651
1916,8652
1941,8653
1908,8654
1918,8655
1913,8656
1921,8657
1899,8658
1945,8659
1901,8660
1950,8661
1947,8662
1936,8663
1936,8664
1951,8665
1934,8666
1946,8667
1952,8668
1940,8669
1981,8670
1955,8671
1960,8672
1949,8673
1929,8674
1904,8675
1907,8676
1932,8677
1950,8678
1920,8679
1919,8680
1871,8681
1884,8682
1856,8683
1867,8684
1910,8685
1873,8686
1861,8687
1875,8688
1902,8689
1891,8690
1924,8691
1924,8692
1959,8693
1953,8694
1963,8695
1959,8696
1961,8697
1957,8698
1939,8699
1937,8700
1886,8701
1905,8702
1875,8703
1905,8704
1880,8705
1896,8706
1852,8707
1891,8708
1879,8709
1912,8710
1903,8711
1945,8712
1985,8713
1955,8714
1991,8715
2012,8716
1992,8717
1964,8718
1953,8719
1912,8720
1908,8721
1935,8722
1892,8723
1911,8724
1908,8725
1873,8726
1893,8727
1914,8728
1905,8729
1938,8730
1976,8731
1937,8732
1962,8733
1999,8734
1928,8735
1961,8736
1987,8737
1929,8738
1935,8739
1986,8740
1948,8741
1947,8742
1907,8743
1888,8744
1896,8745
1898,8746
1908,8747
1921,8748
1912,8749
1925,8750
1951,8751
1956,8752
1940,8753
1968,8754
1911,8755
1974,8756
1966,8757
1984,8758
1932,8759
1953,8760
1939,8761
1915,8762
1926,8763
1914,8764
1910,8765
1883,8766
1879,8767
1904,8768
1904,8769
1937,8770
1946,8771
1933,8772
1946,8773
1981,8774
2016,8775
1958,8776
1984,8777
1969,8778
1958,8779
1932,8780
1944,8781
1952,8782
1932,8783
1924,8784
1926,8785
1917,8786
1887,8787
1889,8788
1903,8789
1951,8790
1950,8791
1987,8792
1964,8793
1991,8794
1989,8795
1973,8796
1984,8797
1971,8798
1964,8799
1975,8800
1937,8801
1945,8802
1923,8803
1917,8804
1891,8805
1929,8806
1912,8807
1915,8808
1895,8809
1924,8810
1903,8811
1977,8812
1988,8813
2008,8814
1971,8815
1993,8816
1947,8817
1963,8818
1935,8819
1948,8820
1949,8821
1934,8822
1912,8823
1901,8824
1909,8825
1879,8826
1900,8827
1915,8828
1879,8829
1943,8830
1956,8831
1947,8832
2025,8833
1991,8834
2042,8835
2016,8836
1975,8837
2016,8838
1961,8839
1954,8840
1932,8841
1938,8842
1932,8843
1895,8844
1927,8845
1900,8846
1899,8847
1929,8848
1924,8849
1915,8850
1936,8851
1930,8852
1959,8853
1959,8854
1989,8855
2001,8856
1993,8857
1977,8858
1986,8859
1936,8860
1949,8861
1908,8862
1904,8863
1932,8864
1948,8865
1928,8866
1944,8867
1905,8868
1941,8869
1911,8870
1895,8871
1950,8872
1952,8873
1978,8874
1986,8875
2004,8876
2012,8877
1980,8878
1956,8879
1961,8880
1919,8881
1901,8882
1911,8883
1890,8884
1908,8885
1900,8886
1905,8887
1920,8888
1880,8889
1930,8890
1938,8891
1929,8892
1972,8893
1980,8894
2001,8895
2012,8896
2001,8897
1961,8898
1975,8899
1932,8900
1944,8901
1885,8902
1871,8903
1838,8904
1867,8905
1887,8906
1884,8907
1906,8908
1913,8909
1889,8910
1937,8911
1918,8912
1926,8913
1956,8914
1924,8915
1969,8916
1959,8917
1937,8918
1923,8919
1911,8920
1908,8921
1887,8922
1892,8923
1868,8924
1888,8925
1886,8926
1887,8927
1902,8928
1888,8929
1920,8930
1908,8931
1925,8932
1966,8933
1935,8934
1968,8935
1957,8936
1979,8937
1959,8938
1914,8939
1931,8940
1914,8941
1844,8942
1848,8943
1861,8944
1849,8945
1854,8946
1849,8947
1885,8948
1872,8949
1914,8950
1936,8951
1934,8952
1949,8953
1957,8954
1986,8955
1986,8956
1995,8957
1960,8958
1962,8959
1945,8960
1930,8961
1906,8962
1860,8963
1881,8964
1866,8965
1864,8966
1878,8967
1859,8968
1899,8969
1889,8970
1927,8971
1934,8972
1927,8973
1958,8974
1960,8975
1960,8976
1943,8977
1931,8978
1946,8979
1935,8980
1887,8981
1912,8982
1906,8983
1835,8984
1866,8985
1881,8986
1873,8987
1932,8988
1896,8989
1932,8990
1894,8991
1917,8992
1957,8993
1927,8994
1973,8995
1967,8996
1941,8997
1970,8998
1943,8999
1940,9000
1923,9001
1886,9002
1910,9003
1880,9004
1863,9005
1879,9006
1876,9007
1868,9008
1931,9009
1902,9010
1944,9011
1939,9012
1961,9013
1964,9014
1941,9015
1938,9016
1956,9017
1946,9018
1942,9019
1935,9020
1898,9021
1905,9022
1882,9023
1905,9024
1904,9025
1894,9026
1888,9027
1904,9028
1911,9029
1967,9030
1917,9031
1968,9032
1947,9033
1938,9034
1944,9035
1984,9036
1957,9037
1955,9038
1941,9039
1908,9040
1933,9041
1919,9042
1888,9043
1871,9044
1889,9045
1867,9046
1854,9047
1890,9048
1883,9049
1883,9050
1944,9051
1928,9052
1921,9053
1956,9054
1977,9055
1967,9056
1962,9057
1939,9058
1956,9059
1944,9060
1947,9061
1943,9062
1912,9063
1924,9064
1877,9065
1888,9066
1877,9067
1888,9068
1891,9069
1912,9070
1897,9071
1949,9072
1946,9073
1936,9074
1968,9075
1997,9076
1958,9077
1949,9078
1956,9079
1941,9080
1914,9081
1921,9082
1906,9083
1927,9084
1906,9085
1884,9086
1867,9087
1910,9088
1903,9089
1907,9090
1920,9091
1957,9092
1953,9093
1967,9094
1984,9095
1998,9096
1987,9097
1952,9098
1920,9099
1911,9100
1921,9101
1910,9102
1879,9103
1915,9104
1842,9105
1879,9106
1895,9107
1908,9108
1896,9109
1920,9110
1940,9111
1919,9112
1964,9113
1959,9114
1969,9115
1975,9116
1957,9117
1958,9118
1932,9119
1911,9120
1920,9121
1928,9122
1868,9123
1905,9124
1918,9125
1921,9126
1904,9127
1869,9128
1904,9129
1893,9130
1903,9131
1964,9132
1984,9133
1968,9134
1972,9135
1980,9136
1956,9137
1966,9138
1953,9139
1910,9140
1909,9141
1916,9142
1907,9143
1876,9144
1908,9145
1902,9146
1887,9147
1912,9148
1924,9149
1915,9150
1930,9151
1942,9152
1954,9153
1984,9154
2001,9155
1980,9156
1968,9157
1988,9158
1956,9159
1932,9160
1898,9161
1923,9162
1909,9163
1881,9164
1896,9165
1885,9166
1897,9167
1904,9168
1926,9169
1956,9170
1931,9171
1984,9172
1986,9173
1975,9174
1984,9175
2030,9176
1964,9177
2000,9178
1948,9179
1938,9180
1918,9181
1915,9182
1928,9183
1896,9184
1891,9185
1892,9186
1892,9187
1918,9188
1931,9189
1897,9190
1935,9191
1939,9192
1948,9193
1984,9194
1990,9195
1985,9196
1995,9197
1957,9198
1984,9199
1979,9200
1958,9201
1977,9202
1919,9203
1930,9204
1876,9205
1887,9206
1879,9207
1896,9208
1905,9209
1891,9210
1911,9211
1951,9212
1915,9213
1984,9214
1970,9215
1937,9216
2007,9217
1969,9218
1964,9219
1957,9220
1925,9221
1922,9222
1922,9223
1901,9224
1905,9225
1935,9226
1900,9227
1922,9228
1938,9229
1931,9230
1959,9231
1937,9232
1950,9233
1978,9234
1973,9235
2005,9236
2014,9237
1968,9238
1958,9239
1955,9240
1901,9241
1911,9242
1914,9243
1888,9244
1905,9245
1902,9246
1918,9247
1908,9248
1924,9249
1930,9250
1980,9251
1972,9252
1979,9253
1947,9254
1958,9255
1980,9256
1994,9257
1974,9258
1911,9259
1942,9260
1929,9261
1930,9262
1911,9263
1915,9264
1901,9265
1868,9266
1876,9267
1910,9268
1930,9269
1880,9270
1946,9271
1931,9272
1956,9273
1975,9274
1984,9275
1962,9276
1954,9277
1966,9278
1957,9279
1935,9280
1902,9281
1900,9282
1909,9283
1896,9284
1906,9285
1904,9286
1902,9287
1920,9288
1914,9289
1957,9290
1944,9291
1970,9292
1940,9293
1954,9294
1984,9295
1988,9296
1948,9297
2000,9298
1939,9299
1954,9300
1961,9301
1882,9302
1905,9303
1911,9304
1908,9305
1869,9306
1882,9307
1917,9308
1922,9309
1935,9310
1968,9311
1976,9312
1973,9313
1985,9314
1985,9315
2014,9316
1965,9317
1970,9318
1936,9319
1951,9320
1908,9321
1923,9322
1929,9323
1938,9324
1914,9325
1871,9326
1920,9327
1931,9328
1907,9329
1926,9330
1940,9331
1938,9332
1928,9333
1994,9334
1977,9335
1978,9336
1989,9337
1970,9338
1960,9339
1925,9340
1976,9341
1945,9342
1887,9343
1921,9344
1881,9345
1932,9346
1905,9347
1935,9348
1936,9349
1934,9350
1974,9351
1953,9352
2001,9353
2004,9354
1977,9355
1981,9356
1991,9357
1974,9358
1995,9359
1928,9360
1952,9361
1910,9362
1920,9363
1869,9364
1937,9365
1920,9366
1928,9367
1924,9368
1954,9369
1940,9370
1952,9371
1962,9372
1968,9373
1979,9374
2012,9375
1984,9376
1984,9377
2004,9378
1953,9379
1963,9380
1918,9381
1945,9382
1923,9383
1894,9384
1882,9385
1912,9386
1923,9387
1923,9388
1920,9389
1929,9390
1953,9391
1949,9392
1965,9393
1989,9394
1985,9395
2017,9396
1971,9397
1993,9398
1965,9399
1965,9400
1932,9401
1938,9402
1882,9403
1904,9404
1912,9405
1923,9406
1940,9407
1937,9408
1920,9409
1943,9410
1945,9411
1966,9412
1984,9413
2002,9414
1978,9415
1975,9416
1953,9417
1980,9418
1970,9419
1975,9420
1929,9421
1943,9422
1936,9423
1916,9424
1931,9425
1915,9426
1927,9427
1923,9428
1904,9429
1963,9430
1970,9431
1972,9432
1980,9433
1993,9434
1978,9435
2022,9436
1983,9437
2008,9438
1977,9439
1953,9440
1945,9441
1903,9442
1907,9443
1894,9444
1900,9445
1899,9446
1968,9447
1927,9448
1948,9449
1935,9450
1964,9451
1933,9452
1965,9453
2013,9454
2024,9455
1979,9456
1986,9457
1960,9458
1991,9459
1954,9460
1942,9461
1930,9462
1935,9463
1910,9464
1937,9465
1918,9466
1916,9467
1935,9468
1907,9469
1979,9470
1987,9471
1966,9472
1982,9473
1937,9474
2016,9475
2020,9476
1951,9477
1988,9478
1968,9479
1953,9480
1959,9481
1895,9482
1928,9483
1914,9484
1915,9485
1881,9486
1928,9487
1927,9488
1931,9489
1930,9490
1953,9491
1975,9492
1978,9493
1989,9494
1993,9495
1954,9496
1986,9497
1938,9498
1962,9499
1971,9500
1913,9501
1938,9502
1887,9503
1889,9504
1916,9505
1907,9506
1911,9507
1917,9508
1944,9509
1944,9510
1946,9511
1940,9512
1972,9513
1984,9514
1977,9515
2029,9516
1964,9517
1959,9518
1947,9519
1984,9520
1948,9521
1897,9522
1909,9523
1906,9524
1913,9525
1918,9526
1916,9527
1924,9528
1921,9529
1915,9530
1940,9531
1970,9532
1963,9533
1945,9534
2044,9535
1970,9536
1951,9537
1952,9538
1979,9539
1912,9540
1939,9541
1927,9542
1915,9543
1913,9544
1880,9545
1896,9546
1925,9547
1901,9548
1922,9549
1939,9550
1947,9551
1967,9552
1974,9553
1967,9554
1985,9555
1979,9556
1996,9557
2008,9558
1982,9559
1948,9560
1937,9561
1933,9562
1909,9563
1889,9564
1906,9565
1912,9566
1909,9567
1922,9568
1972,9569
1992,9570
1946,9571
1968,9572
1962,9573
1993,9574
1992,9575
1980,9576
1976,9577
2005,9578
1953,9579
1987,9580
1940,9581
1899,9582
1924,9583
1871,9584
1883,9585
1940,9586
1908,9587
1941,9588
1949,9589
1964,9590
1939,9591
1953,9592
1979,9593
1983,9594
1979,9595
1959,9596
1997,9597
1943,9598
1963,9599
1939,9600
1952,9601
1922,9602
1903,9603
1921,9604
1896,9605
1915,9606
1900,9607
1936,9608
1947,9609
1939,9610
1933,9611
1999,9612
1979,9613
1989,9614
1988,9615
1962,9616
1982,9617
1986,9618
1942,9619
1938,9620
1906,9621
1879,9622
1896,9623
1927,9624
1874,9625
1929,9626
1926,9627
1892,9628
1960,9629
1941,9630
1956,9631
1946,9632
1976,9633
1975,9634
1982,9635
1944,9636
1981,9637
2011,9638
1943,9639
1966,9640
1923,9641
1948,9642
1939,9643
1933,9644
1925,9645
1910,9646
1936,9647
1933,9648
1895,9649
1980,9650
1970,9651
1977,9652
1979,9653
1984,9654
2001,9655
2017,9656
1977,9657
1944,9658
1989,9659
1939,9660
1904,9661
1941,9662
1889,9663
1885,9664
1934,9665
1935,9666
1910,9667
1953,9668
1945,9669
1951,9670
1991,9671
1970,9672
1943,9673
1991,9674
1965,9675
1968,9676
1987,9677
1950,9678
1961,9679
1952,9680
1926,9681
1925,9682
1942,9683
1920,9684
1952,9685
1925,9686
1905,9687
1919,9688
1952,9689
1941,9690
1965,9691
1975,9692
1958,9693
1984,9694
1971,9695
2003,9696
2016,9697
1983,9698
1978,9699
1964,9700
1952,9701
1922,9702
1912,9703
1927,9704
1952,9705
1896,9706
1950,9707
1958,9708
1975,9709
1943,9710
1955,9711
1978,9712
2006,9713
1976,9714
1960,9715
1972,9716
1987,9717
1975,9718
1942,9719
1960,9720
1948,9721
1918,9722
1910,9723
1934,9724
1933,9725
1952,9726
1911,9727
1947,9728
1923,9729
1959,9730
1963,9731
1972,9732
1990,9733
2004,9734
1982,9735
1977,9736
1967,9737
1955,9738
1954,9739
1949,9740
1947,9741
1944,9742
1952,9743
1944,9744
1931,9745
1926,9746
1918,9747
1926,9748
1951,9749
1991,9750
2000,9751
1976,9752
1951,9753
1992,9754
1988,9755
2001,9756
1995,9757
1956,9758
1956,9759
1952,9760
1922,9761
1923,9762
1926,9763
1940,9764
1914,9765
1915,9766
1918,9767
1931,9768
1933,9769
1926,9770
1936,9771
1953,9772
1994,9773
1962,9774
2001,9775
1995,9776
1973,9777
1960,9778
1952,9779
1965,9780
1959,9781
1942,9782
1949,9783
1944,9784
1877,9785
1909,9786
1943,9787
1923,9788
1967,9789
1952,9790
1954,9791
1954,9792
1964,9793
1981,9794
1984,9795
2003,9796
1993,9797
1991,9798
1954,9799
1950,9800
1956,9801
1935,9802
1920,9803
1937,9804
1924,9805
1965,9806
1937,9807
1930,9808
1943,9809
1972,9810
1956,9811
1952,9812
1960,9813
1977,9814
2004,9815
1977,9816
1980,9817
1996,9818
1982,9819
1961,9820
1923,9821
1923,9822
1924,9823
1909,9824
1931,9825
1942,9826
1951,9827
1955,9828
1947,9829
1968,9830
1948,9831
1980,9832
2016,9833
1975,9834
1984,9835
1988,9836
2006,9837
2021,9838
1958,9839
1959,9840
1928,9841
1929,9842
1938,9843
1924,9844
1894,9845
1913,9846
1904,9847
1956,9848
1926,9849
1989,9850
1955,9851
1981,9852
2020,9853
2005,9854
2009,9855
2001,9856
1989,9857
1926,9858
1979,9859
1955,9860
1927,9861
1932,9862
1938,9863
1960,9864
1938,9865
1920,9866
1895,9867
1859,9868
1927,9869
1942,9870
1967,9871
2006,9872
1998,9873
1967,9874
2007,9875
2007,9876
2015,9877
1989,9878
1996,9879
1913,9880
1940,9881
1938,9882
1914,9883
1951,9884
1953,9885
1943,9886
1948,9887
1952,9888
1980,9889
1977,9890
1959,9891
1991,9892
1979,9893
1975,9894
1981,9895
1988,9896
1992,9897
1980,9898
1955,9899
1959,9900
1905,9901
1948,9902
1927,9903
1858,9904
1890,9905
1916,9906
1926,9907
1944,9908
1971,9909
1923,9910
1953,9911
1969,9912
1984,9913
1983,9914
1986,9915
1950,9916
1982,9917
1967,9918
1931,9919
1937,9920
1925,9921
1947,9922
1931,9923
1947,9924
1948,9925
1922,9926
1935,9927
1915,9928
1956,9929
1979,9930
1973,9931
1985,9932
1991,9933
2009,9934
1997,9935
1997,9936
1964,9937
1994,9938
1975,9939
1966,9940
1917,9941
1925,9942
1906,9943
1923,9944
1933,9945
1922,9946
1947,9947
1958,9948
1928,9949
1960,9950
1927,9951
1994,9952
1968,9953
1988,9954
1997,9955
2004,9956
1991,9957
1988,9958
1959,9959
1954,9960
1928,9961
1935,9962
1932,9963
1912,9964
1919,9965
1936,9966
1924,9967
1899,9968
1901,9969
1952,9970
1960,9971
1947,9972
2000,9973
1987,9974
1999,9975
1956,9976
2012,9977
1923,9978
1971,9979
1962,9980
1962,9981
1941,9982
1924,9983
1941,9984
1925,9985
1948,9986
1947,9987
1905,9988
1932,9989
1923,9990
1957,9991
1973,9992
1961,9993
1991,9994
1969,9995
1963,9996
1967,9997
1978,9998
1983,9999
1950,10000
1909,10001
1949,10002
1933,10003
1908,10004
1936,10005
1937,10006
1925,10007
1954,10008
1929,10009
1916,10010
1959,10011
1973,10012
1986,10013
2008,10014
2009,10015
2006,10016
1983,10017
1977,10018
1959,10019
1946,10020
1936,10021
1896,10022
1937,10023
1940,10024
1903,10025
1936,10026
1951,10027
1911,10028
1923,10029
1913,10030
1955,10031
1976,10032
1980,10033
2000,10034
1996,10035
1982,10036
1990,10037
1981,10038
1978,10039
1945,10040
1936,10041
1944,10042
1908,10043
1915,10044
1935,10045
1898,10046
1915,10047
1934,10048
1963,10049
1978,10050
1978,10051
1987,10052
1965,10053
1999,10054
2014,10055
1978,10056
1967,10057
1953,10058
1974,10059
1935,10060
1934,10061
1922,10062
1900,10063
1904,10064
1911,10065
1914,10066
1925,10067
1925,10068
1952,10069
1929,10070
1934,10071
1967,10072
1987,10073
2008,10074
2013,10075
1970,10076
1968,10077
1957,10078
1945,10079
1954,10080
1899,10081
1945,10082
1918,10083
1926,10084
1912,10085
1930,10086
1903,10087
1942,10088
1937,10089
1915,10090
1960,10091
1948,10092
1973,10093
1997,10094
2011,10095
1998,10096
1959,10097
1980,10098
1981,10099
1954,10100
1934,10101
1927,10102
1886,10103
1911,10104
1904,10105
1920,10106
1930,10107
1922,10108
1979,10109
1963,10110
1986,10111
1980,10112
1941,10113
1970,10114
1960,10115
1983,10116
1961,10117
1971,10118
1960,10119
1945,10120
1938,10121
1896,10122
1936,10123
1901,10124
1909,10125
1896,10126
1932,10127
1926,10128
1907,10129
1943,10130
1976,10131
2000,10132
1997,10133
2016,10134
1991,10135
2018,10136
1996,10137
1971,10138
1968,10139
1950,10140
1928,10141
1929,10142
1918,10143
1935,10144
1915,10145
1881,10146
1911,10147
1981,10148
1940,10149
1963,10150
1959,10151
1959,10152
1985,10153
1991,10154
1997,10155
1988,10156
1980,10157
1970,10158
1985,10159
1918,10160
1932,10161
1913,10162
1904,10163
1892,10164
1903,10165
1925,10166
1951,10167
1913,10168
1927,10169
1953,10170
1958,10171
1962,10172
1919,10173
1976,10174
1986,10175
1975,10176
2000,10177
1988,10178
1975,10179
1979,10180
1927,10181
1955,10182
1949,10183
1880,10184
1927,10185
1943,10186
1928,10187
1938,10188
1930,10189
1980,10190
1953,10191
1991,10192
1966,10193
1959,10194
1954,10195
1955,10196
1956,10197
1963,10198
1948,10199
1931,10200
1917,10201
1894,10202
1920,10203
1928,10204
1946,10205
1892,10206
1964,10207
1932,10208
1936,10209
1935,10210
1967,10211
1965,10212
1975,10213
1996,10214
1997,10215
1947,10216
1981,10217
1934,10218
1937,10219
1966,10220
1917,10221
1918,10222
1896,10223
1947,10224
1922,10225
1917,10226
1928,10227
1945,10228
1920,10229
1964,10230
1956,10231
1954,10232
1980,10233
1939,10234
1988,10235
1999,10236
2000,10237
1949,10238
1958,10239
1932,10240
1953,10241
1945,10242
1923,10243
1917,10244
1903,10245
1925,10246
1919,10247
1924,10248
1957,10249
1944,10250
1964,10251
1972,10252
1985,10253
2000,10254
2001,10255
1972,10256
1970,10257
1972,10258
1972,10259
1950,10260
1940,10261
1946,10262
1956,10263
1922,10264
1915,10265
1950,10266
1967,10267
1951,10268
1925,10269
1963,10270
1971,10271
1991,10272
1992,10273
2007,10274
1975,10275
1985,10276
1972,10277
1997,10278
1947,10279
1938,10280
1934,10281
1948,10282
1916,10283
1906,10284
1910,10285
1937,10286
1934,10287
1935,10288
1960,10289
1964,10290
1993,10291
1955,10292
1970,10293
1991,10294
1967,10295
2019,10296
1988,10297
1954,10298
1960,10299
1918,10300
1960,10301
1935,10302
1943,10303
1939,10304
1919,10305
1953,10306
1931,10307
1976,10308
1950,10309
1960,10310
1961,10311
1980,10312
2001,10313
1971,10314
2035,10315
2030,10316
1931,10317
1951,10318
1934,10319
1934,10320
1940,10321
1938,10322
1921,10323
1923,10324
1912,10325
1953,10326
1941,10327
1952,10328
1957,10329
1969,10330
1980,10331
1952,10332
1988,10333
2016,10334
2007,10335
1981,10336
2018,10337
1951,10338
1938,10339
1926,10340
1937,10341
1908,10342
1923,10343
1884,10344
1973,10345
1948,10346
1949,10347
1932,10348
1944,10349
1962,10350
1985,10351
1999,10352
1975,10353
2003,10354
2014,10355
1992,10356
2008,10357
1999,10358
1991,10359
1952,10360
1936,10361
1927,10362
1907,10363
1917,10364
1933,10365
1931,10366
1933,10367
1966,10368
1995,10369
1951,10370
1968,10371
1976,10372
1967,10373
2013,10374
1996,10375
1995,10376
1967,10377
1981,10378
1950,10379
1945,10380
1917,10381
1913,10382
1927,10383
1916,10384
1920,10385
1929,10386
1964,10387
1967,10388
1966,10389
1994,10390
1955,10391
1974,10392
1965,10393
1976,10394
2005,10395
1991,10396
1998,10397
1974,10398
1982,10399
1960,10400
1929,10401
1887,10402
1918,10403
1923,10404
1930,10405
1901,10406
1936,10407
1993,10408
1964,10409
1992,10410
1984,10411
2012,10412
2007,10413
1957,10414
1981,10415
1977,10416
1976,10417
1988,10418
1957,10419
1944,10420
1943,10421
1924,10422
1901,10423
1902,10424
1923,10425
1916,10426
1951,10427
1960,10428
1967,10429
1977,10430
1991,10431
1991,10432
1945,10433
1974,10434
1968,10435
1967,10436
1992,10437
1943,10438
1961,10439
1971,10440
1964,10441
1940,10442
1961,10443
1897,10444
1924,10445
1908,10446
1916,10447
1971,10448
2005,10449
1995,10450
1976,10451
1990,10452
1993,10453
1996,10454
1977,10455
1974,10456
1982,10457
1982,10458
1981,10459
1957,10460
1952,10461
1900,10462
1903,10463
1919,10464
1910,10465
1956,10466
1932,10467
1949,10468
1972,10469
1985,10470
2006,10471
1989,10472
2019,10473
1989,10474
1998,10475
1979,10476
1993,10477
1967,10478
1961,10479
1969,10480
1944,10481
1945,10482
1949,10483
1899,10484
1924,10485
1941,10486
1963,10487
1946,10488
1972,10489
1968,10490
1997,10491
1977,10492
2025,10493
2021,10494
2008,10495
1957,10496
1988,10497
1955,10498
1938,10499
1956,10500
1926,10501
1966,10502
1917,10503
1937,10504
1928,10505
1931,10506
1974,10507
1966,10508
1951,10509
1987,10510
2000,10511
2014,10512
2002,10513
2026,10514
1992,10515
1978,10516
1967,10517
1954,10518
1963,10519
1924,10520
1931,10521
1938,10522
1934,10523
1943,10524
1943,10525
1950,10526
1929,10527
1916,10528
1927,10529
1974,10530
1979,10531
1991,10532
2035,10533
2030,10534
1984,10535
1980,10536
1980,10537
1958,10538
1961,10539
1967,10540
1955,10541
1934,10542
1905,10543
1932,10544
1938,10545
1931,10546
1926,10547
1932,10548
1930,10549
1973,10550
1966,10551
1977,10552
2034,10553
2024,10554
1999,10555
1986,10556
1966,10557
1982,10558
1968,10559
1950,10560
1969,10561
1935,10562
1936,10563
1925,10564
1933,10565
1948,10566
1939,10567
1957,10568
1959,10569
1937,10570
1966,10571
2022,10572
2003,10573
2010,10574
2026,10575
1988,10576
2026,10577
1982,10578
1944,10579
1961,10580
1946,10581
1942,10582
1938,10583
1925,10584
1920,10585
1935,10586
1956,10587
1919,10588
1970,10589
1958,10590
1973,10591
1948,10592
1990,10593
2008,10594
2015,10595
1991,10596
2004,10597
1965,10598
1974,10599
1958,10600
1914,10601
1949,10602
1956,10603
1900,10604
1960,10605
1931,10606
1911,10607
1958,10608
1951,10609
1980,10610
1973,10611
1948,10612
2000,10613
1985,10614
1993,10615
2007,10616
1992,10617
2000,10618
1947,10619
1944,10620
1938,10621
1935,10622
1933,10623
1921,10624
1934,10625
1923,10626
1915,10627
1951,10628
1983,10629
1963,10630
1994,10631
1991,10632
2024,10633
1974,10634
2030,10635
1982,10636
1987,10637
1987,10638
1962,10639
1923,10640
1933,10641
1945,10642
1912,10643
1926,10644
1897,10645
1938,10646
1957,10647
1955,10648
1975,10649
1959,10650
1975,10651
1994,10652
1975,10653
1984,10654
1997,10655
1967,10656
1998,10657
1969,10658
1967,10659
1942,10660
1942,10661
1931,10662
1911,10663
1913,10664
1901,10665
1932,10666
1945,10667
1943,10668
1977,10669
1976,10670
1988,10671
1976,10672
2001,10673
1977,10674
1995,10675
1936,10676
1963,10677
1975,10678
1947,10679
1948,10680
1942,10681
1949,10682
1947,10683
1923,10684
1938,10685
1941,10686
1940,10687
1970,10688
1961,10689
1996,10690
1980,10691
2000,10692
1991,10693
1993,10694
1993,10695
1985,10696
1973,10697
1945,10698
1978,10699
1922,10700
1926,10701
1932,10702
1895,10703
1938,10704
1916,10705
1916,10706
1943,10707
1938,10708
1948,10709
1967,10710
1955,10711
2008,10712
1979,10713
1994,10714
1987,10715
1980,10716
1978,10717
1991,10718
1953,10719
1919,10720
1935,10721
1939,10722
1933,10723
1952,10724
1933,10725
1922,10726
1938,10727
1927,10728
1959,10729
2002,10730
1995,10731
1999,10732
2047,10733
1984,10734
1979,10735
1960,10736
1979,10737
1937,10738
1938,10739
1949,10740
1951,10741
1948,10742
1923,10743
1907,10744
1922,10745
1951,10746
1913,10747
1932,10748
1959,10749
1992,10750
1967,10751
2014,10752
1986,10753
2008,10754
1961,10755
1986,10756
1983,10757
1947,10758
1959,10759
1943,10760
1936,10761
1935,10762
1933,10763
1955,10764
1940,10765
1927,10766
1921,10767
1933,10768
1963,10769
1963,10770
1984,10771
1996,10772
2015,10773
2004,10774
1977,10775
1968,10776
2023,10777
1921,10778
1938,10779
1936,10780
1928,10781
1934,10782
1933,10783
1917,10784
1964,10785
1908,10786
1991,10787
1918,10788
1930,10789
1978,10790
1968,10791
2015,10792
2015,10793
2002,10794
2006,10795
2002,10796
1971,10797
1968,10798
1938,10799
1933,10800
1909,10801
1898,10802
1942,10803
1938,10804
1935,10805
1899,10806
1943,10807
1940,10808
1968,10809
1962,10810
1960,10811
2016,10812
1990,10813
2012,10814
1999,10815
2008,10816
1974,10817
1957,10818
1953,10819
1934,10820
1951,10821
1950,10822
1917,10823
